frame_start	frame_end	highbinding	left_cerebral_white_matter	left_cerebellum_white_matter	left_cerebellum_cortex	left_thalamus	left_caudate	left_putamen	left_pallidum	brain_stem	left_hippocampus	left_amygdala	csf	left_accumbens_area	left_ventraldc	left_choroid_plexus	right_cerebral_white_matter	right_cerebellum_white_matter	right_cerebellum_cortex	right_thalamus	right_caudate	right_putamen	right_pallidum	right_hippocampus	right_amygdala	right_accumbens_area	right_ventraldc	right_choroid_plexus	aircavity	skull	vermis	pons	csf_extracerebral	head_extracerebral	ctx_lh_bankssts	ctx_lh_caudalanteriorcingulate	ctx_lh_caudalmiddlefrontal	ctx_lh_cuneus	ctx_lh_entorhinal	ctx_lh_fusiform	ctx_lh_inferiorparietal	ctx_lh_inferiortemporal	ctx_lh_isthmuscingulate	ctx_lh_lateraloccipital	ctx_lh_lateralorbitofrontal	ctx_lh_lingual	ctx_lh_medialorbitofrontal	ctx_lh_middletemporal	ctx_lh_parahippocampal	ctx_lh_paracentral	ctx_lh_parsopercularis	ctx_lh_parsorbitalis	ctx_lh_parstriangularis	ctx_lh_pericalcarine	ctx_lh_postcentral	ctx_lh_posteriorcingulate	ctx_lh_precentral	ctx_lh_precuneus	ctx_lh_rostralanteriorcingulate	ctx_lh_rostralmiddlefrontal	ctx_lh_superiorfrontal	ctx_lh_superiorparietal	ctx_lh_superiortemporal	ctx_lh_supramarginal	ctx_lh_frontalpole	ctx_lh_temporalpole	ctx_lh_transversetemporal	ctx_lh_insula	ctx_rh_bankssts	ctx_rh_caudalanteriorcingulate	ctx_rh_caudalmiddlefrontal	ctx_rh_cuneus	ctx_rh_entorhinal	ctx_rh_fusiform	ctx_rh_inferiorparietal	ctx_rh_inferiortemporal	ctx_rh_isthmuscingulate	ctx_rh_lateraloccipital	ctx_rh_lateralorbitofrontal	ctx_rh_lingual	ctx_rh_medialorbitofrontal	ctx_rh_middletemporal	ctx_rh_parahippocampal	ctx_rh_paracentral	ctx_rh_parsopercularis	ctx_rh_parsorbitalis	ctx_rh_parstriangularis	ctx_rh_pericalcarine	ctx_rh_postcentral	ctx_rh_posteriorcingulate	ctx_rh_precentral	ctx_rh_precuneus	ctx_rh_rostralanteriorcingulate	ctx_rh_rostralmiddlefrontal	ctx_rh_superiorfrontal	ctx_rh_superiorparietal	ctx_rh_superiortemporal	ctx_rh_supramarginal	ctx_rh_frontalpole	ctx_rh_temporalpole	ctx_rh_transversetemporal	ctx_rh_insula	reference
0	15	0.021258972585201	0.008754679001867771	0.002623564330860972	0.0003816655662376434	0.05403007566928864	0.002262595342472196	0.009930526837706566	0.0112325893715024	0.002433606656268239	0.09097609668970108	0.01982133649289608	0.03173409774899483	7.444737093464937e-07	0.06279092282056808	0.00019358258577995	0.008049867115914822	2.61069417319959e-05	0.00202482333406806	0.0003166777605656534	0.05383040383458138	0.01586788520216942	0.0009259702637791634	0.0002289932162966579	0.000693023728672415	0.02804350294172764	0.001384066883474588	0.01584505476057529	0.004181659314781427	0.002769310725852847	0.0001916987239383161	0.0001551077875774354	0.007451348938047886	0.002593584591522813	0.01194550842046738	0.001497521181590855	0.0004404571955092251	9.372166459797882e-06	0.0002783231029752642	0.001175160286948085	0.002837502863258123	0.002809950383380055	0.007876520976424217	0.007566295098513365	0.0110711669549346	0.00055012630764395	0.01575224101543427	0.007369697093963623	0.01693237386643887	1.090996306629677e-06	0.01356983184814453	5.970303391222842e-05	0.009538484737277031	0	0.00316007505171001	0.01323031540960073	0.00566322123631835	0.0005172656965442002	0.06178154423832893	0.01492762379348278	0.002037661848589778	0.005708217620849609	0.00552458455786109	0.02117199264466763	0.2377830147743225	3.917597624081282e-08	0.009882128797471523	0.02348426356911659	0.005668541882187128	0.0004240309353917837	0.006712129805237055	0	0.001242909929715097	0.0005350538995116949	0.0007478981860913336	0.007203813642263412	0.02170688845217228	0.001539069693535566	0.02868691273033619	4.735482070827857e-05	0.004968161229044199	0.01315021794289351	0.002126008505001664	2.548635258392551e-08	0.01135343126952648	0.003172642085701227	0.0004313495010137558	3.011674380104523e-06	0.01219432894140482	0.06019960343837738	0.001152462209574878	0.01280686259269714	0.0001487550907768309	0.004743607249110937	0.003561085090041161	0.00121391355060041	0.009298684075474739	0.02833203598856926	0.002049966948106885	9.775175385584589e-06	0.0193082932382822	0.01314287632703781	0.001301146432525
15	30	0.533972144126892	0.4038861095905304	0.3384303748607635	0.3745341598987579	0.6133309006690979	0.6610107421875	0.5017379522323608	0.1991461962461472	0.4940288960933685	0.3594229817390442	0.56453537940979	0.3333541750907898	0.3953418135643005	0.4965375363826752	0.5145818591117859	0.3405554294586182	0.3554171919822693	0.3131215870380402	0.3026277422904968	0.4422007203102112	0.3797836005687714	0.3472338020801544	0.5100082159042358	0.5395339131355286	0.5653402805328369	0.3151196837425232	0.5315191149711609	0.2195649743080139	0.2671230137348175	0.2040327191352844	0.4333191514015198	0.4385673701763153	0.292528510093689	0.3617835938930511	0.4352867305278778	0.3744685053825378	0.310449630022049	0.4838517904281616	0.3573010861873627	0.3969197869300842	0.4072534739971161	0.2647486329078674	0.3703536689281464	0.5223352313041687	0.3356232047080994	0.6340126991271973	0.4601557552814484	0.4626273810863495	0.3136623501777649	0.4713454246520996	0.6479784250259399	0.4968428313732147	0.4428709447383881	0.4393710196018219	0.2560928761959076	0.4097360968589783	0.3042927980422974	0.4784206449985504	0.4829772412776947	0.3514944612979889	0.2792058289051056	0.5438140630722046	0.5206653475761414	1.126757264137268	0.715126633644104	0.56529700756073	0.5990928411483765	0.5059276223182678	0.4377009570598602	0.3930574953556061	0.2869755029678345	0.4456721544265747	0.3287435173988342	0.2905778288841248	0.3423081040382385	0.3768716156482697	0.3628028035163879	0.3895739316940308	0.4617796838283539	0.5296196937561035	0.4753595590591431	0.4659824073314667	0.3081308901309967	0.4396060407161713	0.4610831141471863	0.5244256258010864	0.4727388024330139	0.4539913833141327	0.3498058915138245	0.5208390355110168	0.3125372529029846	0.5491155982017517	0.2871498763561249	0.385870635509491	0.3273699283599854	0.5146023035049438	0.3949386775493622	0.4308710098266602	0.1548847705125809	0.5389544367790222	0.6792702674865723	0.336337193846703
30	45	2.269796848297119	1.724184632301331	1.715494155883789	2.851685047149658	2.414717435836792	2.223083019256592	2.111681938171387	2.184743881225586	2.234821319580078	2.518612861633301	2.591877937316895	2.410846948623657	1.216596484184265	2.33235502243042	2.364920854568481	1.703585028648376	1.716091275215149	2.554162502288818	1.922507882118225	1.972430825233459	2.060337066650391	1.293116688728333	2.264114618301392	2.436908006668091	2.791415214538574	2.267610788345337	2.806417465209961	1.268028616905212	1.546954274177551	1.940911173820496	2.092592239379883	3.410901546478271	1.849028348922729	2.201905965805054	3.182012557983398	2.34916877746582	4.806102752685547	3.441822290420532	2.179372787475586	2.148619174957275	2.268445014953613	2.826219320297241	2.848443746566772	2.580713987350464	2.665728569030762	2.689474582672119	2.477621555328369	3.032837152481079	2.188970804214478	2.619367122650146	1.857202529907227	2.602710247039795	2.171653509140015	2.655225515365601	2.849422931671143	2.260545015335083	2.469740867614746	2.50848913192749	2.298432111740112	2.429528474807739	2.323185205459595	2.198567867279053	2.480728626251221	2.883843660354614	2.227342844009399	3.344464302062988	3.246224880218506	2.475487470626831	2.382035732269287	2.143932580947876	2.950250864028931	2.030243635177612	2.3675217628479	2.247832298278809	2.103454351425171	2.541204929351807	2.462976217269897	2.351451873779297	2.789350271224976	2.623350620269775	2.32335352897644	2.455861568450928	2.420627117156982	2.4914710521698	2.339684247970581	2.279575109481812	2.15739631652832	2.428500652313232	3.025537014007568	2.347748517990112	2.517301321029663	2.225399732589722	2.278573036193848	2.177822113037109	2.097913980484009	2.444974899291992	2.880578279495239	2.054111957550049	1.909842491149902	3.390100717544556	2.733200788497925	2.653347730636597
45	60	4.344529151916504	3.142846345901489	3.279324293136597	5.560351371765137	4.244382381439209	4.195126056671143	4.040748596191406	4.667670249938965	3.974894046783447	5.162582874298096	4.74193811416626	4.512176036834717	4.127418518066406	3.850156784057617	8.270770072937012	3.108548164367676	3.278254985809326	4.977795124053955	3.873505830764771	3.579041004180908	4.276371479034424	1.997122287750244	3.806781053543091	4.785688877105713	4.81282377243042	4.264277458190918	6.572136402130127	2.558652400970459	3.307943820953369	4.317889213562012	3.031045198440552	6.105762958526611	4.103365421295166	5.195433139801025	4.345730781555176	4.636830806732178	8.523777008056641	4.115289688110352	3.856550455093384	4.32027530670166	4.137546062469482	5.058816909790039	5.162655353546143	4.062196731567383	4.753440380096436	4.370481014251709	4.292681217193604	3.765451431274414	5.015554428100586	4.907735347747803	4.61411190032959	3.710015535354614	4.457770824432373	4.731983661651611	4.6493239402771	4.430423259735107	4.623519897460938	3.885528326034546	3.749051094055176	3.980178833007812	4.924272537231445	4.887819766998291	4.576332092285156	5.088026523590088	5.06304407119751	7.118718147277832	5.530381679534912	4.601059913635254	4.362139701843262	3.883520603179932	6.230173587799072	4.4127197265625	4.332737445831299	3.679446220397949	3.539142608642578	5.76706600189209	4.70115327835083	4.764280319213867	5.449719905853271	4.17476749420166	4.101309776306152	4.382358074188232	3.491296291351318	4.787188529968262	3.920415639877319	4.296968936920166	5.209980487823486	4.266080856323242	3.916465997695923	4.293084621429443	4.246658325195312	4.140933990478516	4.301153182983398	4.274297714233398	4.309780120849609	4.763768196105957	5.055885791778564	5.173631191253662	3.819732189178467	7.715211868286133	4.615096092224121	5.273077487945557
60	75	5.894333839416504	4.663266658782959	5.056338310241699	8.35826587677002	5.492527484893799	5.724625110626221	6.000341892242432	6.451136589050293	5.573298931121826	5.658148765563965	6.927900791168213	5.953344345092773	4.118329524993896	6.325429439544678	6.591836929321289	4.690696239471436	4.893751621246338	7.384795188903809	5.508852958679199	4.771193027496338	5.584062099456787	5.092616081237793	5.458950519561768	5.168323993682861	4.404671192169189	5.897103309631348	7.847246646881104	4.030226230621338	5.248112201690674	6.539741516113281	4.966177940368652	8.534669876098633	6.642734527587891	5.701652050018311	7.796319484710693	5.936743259429932	11.94217681884766	5.129633903503418	5.632065296173096	6.192414283752441	5.991683483123779	6.694128513336182	7.415653705596924	6.119416236877441	7.043561458587646	6.476876735687256	6.238988876342773	6.100560188293457	5.038574695587158	6.670845508575439	6.651457786560059	6.200947284698486	6.409023761749268	6.301127910614014	5.272335529327393	6.170870780944824	5.953583717346191	6.07496166229248	6.089008331298828	6.137851238250732	6.825202941894531	7.057618141174316	7.103460311889648	5.347386360168457	5.345297336578369	9.264948844909668	7.456571578979492	6.352362632751465	7.857113838195801	5.8597731590271	10.02950763702393	3.972710132598877	5.988517284393311	6.045259952545166	5.789328575134277	7.131405830383301	6.941382884979248	7.226703643798828	8.559042930603027	7.333169460296631	6.474922657012939	5.446656227111816	6.012578964233398	6.178650856018066	6.73454475402832	5.803981781005859	9.158300399780273	6.706164360046387	6.085887908935547	6.627936840057373	6.410458564758301	6.285245895385742	6.020753860473633	6.034870147705078	6.192178249359131	6.654590129852295	6.140444755554199	7.717711925506592	5.166233062744141	7.93670129776001	7.153154850006104	7.987266778945923
75	90	7.395615577697754	6.4731764793396	7.15958833694458	11.16324424743652	7.583302021026611	6.346081733703613	6.826601982116699	5.862306594848633	6.733009338378906	8.670290946960449	10.03899574279785	7.830547332763672	10.56436634063721	8.069475173950195	11.71407985687256	6.051180839538574	6.271835327148438	9.782361030578613	7.891273498535156	6.596117496490479	7.095999240875244	5.866849422454834	8.097190856933594	8.230249404907227	6.469687938690186	6.734830379486084	9.297198295593262	5.526548862457275	7.396642684936523	8.969985008239746	7.040607929229736	10.87877178192139	9.668105125427246	9.06653881072998	9.100948333740234	7.348152637481689	15.49603271484375	7.121821403503418	7.484858512878418	8.700321197509766	8.495135307312012	8.796775817871094	10.42905521392822	7.671770095825195	10.0529670715332	8.57683277130127	8.256332397460938	7.865124225616455	6.79614782333374	8.517518043518066	9.417738914489746	8.201805114746094	9.765741348266602	9.010467529296875	7.954959869384766	8.733176231384277	7.853128910064697	8.161233901977539	8.742502212524414	8.562444686889648	8.946207046508789	9.075987815856934	8.387115478515625	11.44118785858154	6.840957641601562	9.980426788330078	9.376038551330566	7.892930030822754	8.967074394226074	8.200836181640625	12.12238883972168	6.294780254364014	8.654796600341797	8.03669548034668	7.192282199859619	8.66014289855957	9.442349433898926	7.188240528106689	10.30163764953613	8.827473640441895	8.196406364440918	7.998291969299316	7.704343318939209	8.418304443359375	8.286086082458496	8.560532569885254	10.22603893280029	8.261286735534668	7.735965251922607	8.55836009979248	8.630097389221191	8.929676055908203	8.070145606994629	8.311244010925293	7.86482048034668	8.885006904602051	9.367221832275391	8.248664855957031	7.000277519226074	10.1342945098877	8.192705154418945	10.69801473617554
90	105	9.625087738037109	7.616220474243164	7.816140174865723	12.60976886749268	10.58881568908691	9.054807662963867	9.531645774841309	9.059696197509766	8.382819175720215	7.04469633102417	7.767661571502686	8.982281684875488	8.340142250061035	7.561511993408203	13.88308143615723	7.572904109954834	7.955305576324463	11.65460777282715	9.512638092041016	6.869235992431641	8.723052978515625	8.799459457397461	10.35310935974121	9.651858329772949	8.192773818969727	8.136580467224121	13.46494007110596	6.659796237945557	9.007349967956543	10.01387310028076	7.637501239776611	12.39554786682129	11.81589794158936	11.10033226013184	8.76422119140625	9.1883544921875	17.03315353393555	8.768095016479492	8.446776390075684	10.31968593597412	8.922731399536133	10.49265384674072	12.03268432617188	9.505484580993652	11.1733922958374	9.824151992797852	10.3292818069458	7.783246517181396	10.28917598724365	11.4315299987793	12.69126415252686	11.05546760559082	12.03197860717773	9.369379043579102	9.249139785766602	9.711658477783203	10.54790782928467	8.024210929870605	10.18468856811523	9.667022705078125	10.55603218078613	10.50831699371338	10.3526086807251	10.44918823242188	7.796147346496582	10.20552539825439	9.845985412597656	11.03214740753174	10.19866943359375	8.61885929107666	14.50342845916748	9.346673965454102	9.668344497680664	9.905459403991699	8.047629356384277	11.97332191467285	11.51263999938965	9.314879417419434	11.74410629272461	9.179936408996582	9.425597190856934	7.191773891448975	8.741259574890137	9.718649864196777	8.514610290527344	10.35321140289307	11.63366222381592	10.24199676513672	8.126643180847168	10.44387626647949	10.20961856842041	10.27201175689697	10.31663799285889	9.609246253967285	10.16558837890625	10.15196323394775	10.98578262329102	12.13907146453857	8.875732421875	13.08122825622559	9.581280708312988	12.39830827713013
105	120	10.92318630218506	8.978420257568359	8.854124069213867	15.25317859649658	11.5765905380249	8.566217422485352	10.77721500396729	9.527990341186523	8.842611312866211	10.14333438873291	11.00207805633545	11.27635765075684	9.376385688781738	8.997954368591309	14.79589653015137	8.851911544799805	8.706045150756836	13.13977909088135	10.93390560150146	10.00149726867676	10.60700416564941	9.290435791015625	9.654912948608398	10.33980369567871	9.705809593200684	10.21676921844482	13.47414779663086	7.862067222595215	10.71389007568359	12.99238014221191	8.572983741760254	14.26424026489258	14.19726657867432	12.96062278747559	10.96525478363037	11.65967655181885	19.72120094299316	12.1469612121582	9.558960914611816	12.01243877410889	11.17950534820557	11.79193878173828	14.71207046508789	10.21694946289062	13.46086883544922	11.22104930877686	11.42460441589355	8.854642868041992	10.0765495300293	11.60061931610107	13.02062320709229	12.9510669708252	13.0524377822876	12.25014019012451	10.94088554382324	11.97358894348145	11.9240837097168	9.661705017089844	11.78037166595459	11.82369995117188	12.22160911560059	12.5220775604248	13.24231815338135	14.42265319824219	9.605743408203125	13.85385036468506	11.94861507415771	12.6233491897583	10.40610027313232	11.40106201171875	17.25008583068848	8.012798309326172	11.99181461334229	11.89113521575928	10.34150123596191	14.13875293731689	14.07119846343994	11.05439376831055	14.27583122253418	10.49033164978027	11.48470592498779	9.260666847229004	10.6807746887207	12.18351268768311	10.72349739074707	10.66807460784912	13.46871662139893	12.31815814971924	10.13396453857422	11.52650928497314	11.47048664093018	10.69462203979492	11.68253612518311	11.50949287414551	11.93462944030762	12.91772747039795	12.18973827362061	13.57670974731445	7.992627143859863	14.57999420166016	10.80124187469482	14.63226842880249
120	135	10.17953014373779	9.002236366271973	9.314352035522461	15.4742374420166	11.67992210388184	7.647583484649658	10.0198221206665	8.83012866973877	8.851359367370605	10.28801822662354	8.252785682678223	9.962742805480957	11.44706344604492	9.602514266967773	18.16581726074219	8.996638298034668	8.894681930541992	14.34911918640137	10.01036930084229	8.538368225097656	11.20687675476074	8.56337833404541	9.71183967590332	8.496256828308105	8.874040603637695	10.26426887512207	12.96332263946533	8.313913345336914	11.47958469390869	14.11492538452148	7.734474658966064	14.83340263366699	15.32880210876465	11.31098937988281	9.679592132568359	11.88339710235596	20.18757247924805	10.05646228790283	11.02313423156738	13.54294681549072	12.0474739074707	13.79855823516846	15.6066312789917	11.40500736236572	13.74872970581055	11.24035549163818	11.375657081604	8.620945930480957	11.30236721038818	12.1295223236084	12.98367309570312	11.81703662872314	17.15960311889648	13.15780162811279	11.21850395202637	12.5330286026001	12.63547229766846	9.588789939880371	11.63753318786621	12.15940475463867	14.13111209869385	12.17056846618652	13.42602825164795	14.28082752227783	10.2297945022583	12.99560451507568	11.59033107757568	11.38964653015137	12.12601089477539	12.00994491577148	18.66857528686523	10.62281227111816	11.98087120056152	12.52809906005859	10.24468326568604	13.1496410369873	14.49633884429932	10.95530986785889	15.8812141418457	11.98152637481689	12.00974464416504	10.1874475479126	10.7947359085083	13.54641151428223	11.32428932189941	12.14918804168701	15.35552024841309	13.13290500640869	10.66937351226807	11.40348148345947	11.94310569763184	10.77882671356201	12.01880645751953	12.4041805267334	12.59018230438232	11.98120784759521	12.23760223388672	11.79612636566162	9.260954856872559	12.80601501464844	12.52962017059326	15.38192415237427
135	150	11.15486621856689	9.499212265014648	10.00767135620117	15.93623161315918	10.53126430511475	9.507814407348633	11.62803077697754	10.287672996521	9.230855941772461	10.87769794464111	9.955522537231445	9.313652992248535	10.23849105834961	9.154445648193359	15.31820297241211	9.565999031066895	8.995753288269043	14.9915189743042	11.15041637420654	9.892264366149902	10.72566509246826	8.949448585510254	10.01274585723877	10.28026390075684	12.51011657714844	10.81343460083008	13.86471366882324	8.37480640411377	12.21815967559814	14.05512142181396	7.734566211700439	14.63105392456055	16.5547981262207	11.82811832427979	9.315152168273926	11.8425874710083	20.79118919372559	9.997461318969727	11.58374309539795	14.71505546569824	10.51739883422852	13.57290554046631	15.3649959564209	11.19370079040527	14.37306594848633	11.23716259002686	12.5508394241333	10.00299072265625	10.61266803741455	13.2024974822998	15.54685306549072	12.17961502075195	16.64122581481934	14.6138858795166	11.44368743896484	12.88193416595459	12.64673328399658	11.27632141113281	12.40144157409668	12.81822967529297	14.5718240737915	12.8829870223999	14.63534355163574	18.38912200927734	10.06507015228271	15.0991735458374	11.46105194091797	11.26713466644287	10.81735229492188	13.06837368011475	18.92920303344727	8.544474601745605	13.32007122039795	12.85710048675537	11.40097713470459	13.9148006439209	15.5244722366333	11.45778846740723	15.63982200622559	11.29222583770752	12.04047107696533	8.582109451293945	10.69771480560303	12.60501098632812	12.72124481201172	12.62162685394287	16.77406311035156	14.6378116607666	12.00906562805176	13.20289707183838	13.25720405578613	10.56186771392822	13.1641092300415	12.36500930786133	14.02267551422119	12.99272441864014	13.4346170425415	12.83435249328613	7.92318058013916	15.10261344909668	10.77869606018066	16.04003095626831
150	165	11.84783458709717	9.991450309753418	9.551862716674805	15.9317512512207	12.35080242156982	9.94090747833252	13.20170974731445	9.221850395202637	9.339324951171875	9.513684272766113	8.48867130279541	10.7009220123291	10.91716861724854	10.01817226409912	19.87981986999512	9.856771469116211	10.08430767059326	15.00804615020752	11.56876277923584	8.893579483032227	11.68344402313232	8.959959030151367	10.03160381317139	11.55009365081787	14.26407241821289	11.39280891418457	17.33024024963379	8.670671463012695	12.78919506072998	15.61974906921387	8.609643936157227	14.03149032592773	17.1872444152832	13.20347213745117	10.15236377716064	11.69911193847656	20.02882766723633	12.51723575592041	11.90787315368652	14.32093524932861	13.21277809143066	12.47419738769531	16.03763961791992	13.0867862701416	15.41396903991699	11.22866821289062	13.03498077392578	8.925711631774902	12.88151073455811	14.28001976013184	15.08051300048828	12.03898906707764	14.64230537414551	13.71917915344238	11.40849018096924	13.06545925140381	13.22293949127197	10.72726821899414	13.18589496612549	12.93912029266357	14.55266857147217	12.74263763427734	14.20473861694336	14.99910354614258	11.145432472229	13.75748252868652	11.05420589447021	12.81158256530762	12.26992797851562	12.41470336914062	19.59951591491699	10.79641819000244	12.73232746124268	14.20873355865479	11.61429214477539	13.09342861175537	15.97996234893799	11.46111297607422	15.32499504089355	12.7893180847168	12.3991231918335	11.42117786407471	12.99628353118896	14.04649448394775	12.65524387359619	13.40047359466553	15.93318939208984	13.92311191558838	10.66075992584229	13.44586753845215	14.02481937408447	10.29538440704346	13.58370971679688	12.12619781494141	13.46173858642578	12.05938339233398	14.44734382629395	13.46963977813721	8.655125617980957	14.15803813934326	12.51628303527832	16.16199588775635
165	180	12.14179420471191	10.17951583862305	9.833419799804688	16.1004810333252	11.73253059387207	11.0094165802002	12.31147480010986	11.83777523040771	9.198322296142578	10.20963859558105	8.723156929016113	10.46268272399902	11.12094306945801	12.24406814575195	12.5356273651123	9.99299144744873	11.09716033935547	15.1295280456543	11.82810592651367	10.95199775695801	11.27494335174561	11.10898685455322	10.15312480926514	9.659500122070312	12.33295249938965	10.76959896087646	14.12087726593018	8.323306083679199	12.79280090332031	15.18535232543945	8.800500869750977	13.51857852935791	17.22597122192383	14.28852653503418	11.42340278625488	11.81919193267822	18.97489738464355	10.95148944854736	11.1673412322998	14.79742527008057	13.08591461181641	12.90307712554932	16.68912124633789	11.93113613128662	15.45715141296387	12.63693809509277	14.29720401763916	10.33823299407959	11.37402153015137	14.69003963470459	17.81951904296875	13.35269737243652	15.05322742462158	13.82835960388184	12.96149635314941	14.00175666809082	12.05849075317383	10.58212089538574	13.342209815979	13.0984411239624	14.47358798980713	12.83971977233887	14.38617134094238	13.33196067810059	9.051939010620117	15.05099391937256	10.63807773590088	12.77652645111084	11.14804840087891	13.11599540710449	17.74412536621094	7.726202964782715	13.19411087036133	14.24569892883301	12.60892963409424	12.30774021148682	15.86813449859619	11.3085823059082	15.90910339355469	11.99936008453369	13.03011035919189	10.20848178863525	11.9783353805542	13.5100564956665	13.05473709106445	12.48174476623535	17.59396553039551	12.79633140563965	10.62621116638184	12.56859874725342	13.15463352203369	12.01663112640381	12.57877254486084	12.52092552185059	13.89078998565674	12.5334587097168	13.56896686553955	12.94625186920166	9.244990348815918	12.76342582702637	10.52866268157959	16.36689424514771
180	195	12.13108921051025	10.16622066497803	10.8118200302124	15.85424900054932	11.3755578994751	10.0226583480835	13.15874099731445	11.82392406463623	9.868156433105469	9.490469932556152	10.30524826049805	10.45842266082764	9.681952476501465	9.777886390686035	15.47147560119629	10.26685523986816	9.472682952880859	14.97093105316162	12.06246566772461	9.057376861572266	12.39794063568115	9.936460494995117	10.65737342834473	11.16190242767334	10.84339809417725	9.247051239013672	11.00320243835449	8.511290550231934	12.933274269104	14.86481285095215	8.86972713470459	13.48783683776855	17.45114707946777	14.1768741607666	12.57045078277588	12.6439733505249	18.12301826477051	10.63501453399658	11.15550231933594	14.32253837585449	12.61036205291748	11.68457126617432	15.49624443054199	12.69597244262695	14.48336124420166	12.05141925811768	13.18388843536377	9.897625923156738	12.78579807281494	13.54614543914795	13.99595546722412	13.68118286132812	18.26998710632324	14.04497909545898	11.16371631622314	13.92521572113037	13.92944717407227	11.95870780944824	13.8639965057373	13.0047550201416	14.81291770935059	13.31235885620117	14.70840549468994	14.84617519378662	10.360426902771	14.45777034759521	11.63321971893311	14.18091869354248	11.91577911376953	14.26134395599365	17.36992835998535	10.21630096435547	13.12607383728027	13.6792459487915	10.89137649536133	12.51346492767334	15.31525135040283	11.76681327819824	15.62404632568359	12.29148292541504	13.51140785217285	10.18565464019775	14.00749683380127	12.90749549865723	13.84218311309814	13.30246639251709	19.83488845825195	14.24015522003174	12.30768203735352	14.12268733978271	14.83036804199219	11.90871906280518	14.14247035980225	13.22697925567627	14.04152870178223	12.38720703125	14.38419723510742	10.61547183990479	9.150287628173828	13.3149299621582	12.00364398956299	16.21406269073486
195	210	12.35442352294922	10.41794490814209	10.77424240112305	15.8073263168335	11.6853141784668	10.4994068145752	13.25107002258301	11.12259483337402	9.69465160369873	9.555449485778809	8.070472717285156	10.0527172088623	9.75788688659668	10.00534248352051	17.61157989501953	10.38503551483154	10.69511795043945	15.53826522827148	10.71186256408691	10.78032207489014	12.62389373779297	9.46367359161377	11.71066570281982	10.9309024810791	13.55492877960205	9.674530982971191	12.89340019226074	8.356868743896484	13.03591823577881	13.58725070953369	9.423295021057129	13.31619834899902	17.61762428283691	16.02474975585938	11.35384082794189	12.85263729095459	16.02780151367188	13.48439788818359	11.80672168731689	15.98190402984619	12.16132545471191	13.84652042388916	17.3839111328125	12.77109336853027	15.77248477935791	11.60610389709473	13.82587909698486	9.267633438110352	12.55102729797363	13.42526245117188	16.07834053039551	13.30615139007568	17.46478843688965	13.68294143676758	11.92067718505859	13.95414447784424	14.02619743347168	11.24344730377197	14.57289886474609	13.79185676574707	14.31969928741455	13.76497745513916	15.55424785614014	16.43476676940918	10.89875507354736	15.2998218536377	11.33211517333984	13.51409530639648	9.645495414733887	15.00305080413818	17.0290470123291	9.400835037231445	13.46082782745361	14.29995822906494	12.49116039276123	13.82964515686035	16.25828742980957	11.40196323394775	16.31947135925293	12.9209508895874	13.7822961807251	10.27037715911865	11.81403636932373	13.5202112197876	13.18270683288574	12.95775604248047	19.30450057983398	15.03377819061279	10.8595609664917	13.22523880004883	14.49593734741211	12.68436717987061	13.3830738067627	13.0349760055542	14.09422779083252	13.07690811157227	14.60959434509277	14.10602188110352	8.537740707397461	17.36718559265137	12.31190586090088	16.48132419586182
210	225	13.1680793762207	10.43749332427979	10.65733909606934	16.10691833496094	11.98979377746582	11.57360553741455	13.86415195465088	11.91302299499512	9.511806488037109	9.462773323059082	9.13392448425293	10.76998710632324	15.07254981994629	10.82956504821777	11.46615028381348	10.65550518035889	10.63004398345947	14.95110702514648	11.44752502441406	10.0732536315918	14.8453311920166	12.89209461212158	9.220845222473145	10.41848087310791	13.49781131744385	11.00890350341797	9.3817138671875	8.397383689880371	13.1691255569458	15.32048892974854	8.652541160583496	13.34487533569336	17.52715110778809	13.96006774902344	11.15167903900146	13.61495971679688	18.63128852844238	11.00941181182861	12.86387729644775	15.71804809570312	13.49673175811768	14.84674644470215	16.68850135803223	11.70153617858887	14.40119934082031	11.49502086639404	14.56572437286377	11.12142658233643	13.31522178649902	16.14776420593262	15.10387897491455	13.30856895446777	16.65850448608398	13.73901653289795	12.6895055770874	13.89129734039307	14.04599857330322	12.88000011444092	13.98616886138916	13.67426776885986	14.43788146972656	13.99826717376709	15.56391334533691	12.60690593719482	10.36306381225586	15.1835880279541	11.93643760681152	14.27404975891113	12.06809616088867	13.64346694946289	19.18411254882812	8.118144035339355	13.97493171691895	14.0455265045166	12.81068134307861	12.27312278747559	15.12519264221191	12.54361248016357	15.61679077148438	13.44022178649902	13.70623016357422	9.984553337097168	11.87839412689209	14.26117897033691	14.46006202697754	13.56204414367676	16.67988014221191	14.2184419631958	11.72086620330811	13.39108180999756	14.72837448120117	12.7513542175293	14.14706420898438	13.61092090606689	14.47163486480713	13.87877941131592	14.09300518035889	13.43334484100342	11.96109008789062	15.91649723052979	12.70808696746826	16.36360263824463
