frame_start	frame_end	highbinding	left_cerebral_white_matter	left_cerebellum_white_matter	left_cerebellum_cortex	left_thalamus	left_caudate	left_putamen	left_pallidum	brain_stem	left_hippocampus	left_amygdala	csf	left_accumbens_area	left_ventraldc	left_choroid_plexus	right_cerebral_white_matter	right_cerebellum_white_matter	right_cerebellum_cortex	right_thalamus	right_caudate	right_putamen	right_pallidum	right_hippocampus	right_amygdala	right_accumbens_area	right_ventraldc	right_choroid_plexus	aircavity	skull	vermis	pons	csf_extracerebral	head_extracerebral	ctx_lh_bankssts	ctx_lh_caudalanteriorcingulate	ctx_lh_caudalmiddlefrontal	ctx_lh_cuneus	ctx_lh_entorhinal	ctx_lh_fusiform	ctx_lh_inferiorparietal	ctx_lh_inferiortemporal	ctx_lh_isthmuscingulate	ctx_lh_lateraloccipital	ctx_lh_lateralorbitofrontal	ctx_lh_lingual	ctx_lh_medialorbitofrontal	ctx_lh_middletemporal	ctx_lh_parahippocampal	ctx_lh_paracentral	ctx_lh_parsopercularis	ctx_lh_parsorbitalis	ctx_lh_parstriangularis	ctx_lh_pericalcarine	ctx_lh_postcentral	ctx_lh_posteriorcingulate	ctx_lh_precentral	ctx_lh_precuneus	ctx_lh_rostralanteriorcingulate	ctx_lh_rostralmiddlefrontal	ctx_lh_superiorfrontal	ctx_lh_superiorparietal	ctx_lh_superiortemporal	ctx_lh_supramarginal	ctx_lh_frontalpole	ctx_lh_temporalpole	ctx_lh_transversetemporal	ctx_lh_insula	ctx_rh_bankssts	ctx_rh_caudalanteriorcingulate	ctx_rh_caudalmiddlefrontal	ctx_rh_cuneus	ctx_rh_entorhinal	ctx_rh_fusiform	ctx_rh_inferiorparietal	ctx_rh_inferiortemporal	ctx_rh_isthmuscingulate	ctx_rh_lateraloccipital	ctx_rh_lateralorbitofrontal	ctx_rh_lingual	ctx_rh_medialorbitofrontal	ctx_rh_middletemporal	ctx_rh_parahippocampal	ctx_rh_paracentral	ctx_rh_parsopercularis	ctx_rh_parsorbitalis	ctx_rh_parstriangularis	ctx_rh_pericalcarine	ctx_rh_postcentral	ctx_rh_posteriorcingulate	ctx_rh_precentral	ctx_rh_precuneus	ctx_rh_rostralanteriorcingulate	ctx_rh_rostralmiddlefrontal	ctx_rh_superiorfrontal	ctx_rh_superiorparietal	ctx_rh_superiortemporal	ctx_rh_supramarginal	ctx_rh_frontalpole	ctx_rh_temporalpole	ctx_rh_transversetemporal	ctx_rh_insula	reference
0	15	0.007161485496908	0.005737442523241043	0	0.0006446251063607633	0.01328389253467321	0.01124220062047243	0.0003685456758830696	9.194375707011204e-06	0.00245566270314157	1.515308667876525e-06	6.488562576123513e-08	0.004868414252996445	0	0.008632887154817581	0.0004402143240440637	0.005230267066508532	0.0007067507249303162	0.003599226009100676	3.87547380853448e-08	0.001158422324806452	0.007492710836231709	0.007346002385020256	1.757865334184316e-06	5.704234240511141e-07	0	2.900126310123596e-05	0.00721664447337389	0.000837705738376826	0.001857859548181295	0	7.95317318988964e-05	0.002497647423297167	0.001672795508056879	5.349449111236027e-06	1.222721130034188e-05	0.004984264727681875	0	2.637038232933264e-05	0.01035167835652828	0.007882467471063137	8.952650205173995e-06	5.637172307615401e-06	0.0001230686757480726	0.004242524970322847	4.181281838100404e-06	0.002823550952598453	0.0009576196316629648	0.0006884406320750713	0.006971931550651789	0.02164276503026485	0.001474541728384793	0.006940808612853289	0.0003990374971181154	0.001108301337808371	0.001344086485914886	0.0004797748697455972	0.003477583173662424	0.0006923392065800726	0.004924101755023003	0.00958247110247612	0.01106431242078543	0.009543513879179955	0.005860663950443268	0.0009833825752139091	0.001966086449101567	0.001049440703354776	0.02843043208122253	1.829463144531474e-06	0.0002946137683466077	0.0009318214142695069	0.0009495973354205489	1.959638069592984e-07	9.811805057324818e-07	0.007154089864343405	0.00453142449259758	0.0001948193385032937	0.002042950829491019	0.002266548341140151	3.705116250785068e-05	0.0003437506675254554	0.03890151903033257	0.01502155791968107	0.0006161053897812963	0.05672170966863632	0.001421399647369981	0.03157484903931618	5.726972176489653e-07	0.002571639372035861	0.001146930851973593	0.004692749120295048	0.01055184938013554	0.002427464351058006	0.01851051487028599	0.008784285746514797	0.0168269332498312	0.003408345161005855	0.02857653982937336	0.00158048770390451	4.939800533065863e-07	1.703986890788656e-05	0.003887732280418277	0.001711197008262
15	30	0.289736926555634	0.2238924950361252	0.1924976110458374	0.1768670529127121	0.2776699662208557	0.2521592080593109	0.2740881741046906	0.1307580471038818	0.1375827491283417	0.1777541190385818	0.09019986540079117	0.2254015803337097	0.08101238310337067	0.09695718437433243	0.338423103094101	0.2230353206396103	0.2001268118619919	0.156955674290657	0.205026850104332	0.4143778383731842	0.1793267726898193	0.4622417092323303	0.3149908781051636	0.1348980516195297	0.05163446068763733	0.276228129863739	0.1518819630146027	0.119031585752964	0.1357951611280441	0.09960553795099258	0.1503077447414398	0.1807409673929214	0.08905930817127228	0.257375180721283	0.4147709608078003	0.1851662993431091	0.1635808497667313	0.3368558585643768	0.2153050750494003	0.2184410691261292	0.2284741848707199	0.08347596973180771	0.197148784995079	0.3943255841732025	0.1488058269023895	0.179983988404274	0.2699190676212311	0.1108195632696152	0.2017501890659332	0.1953599452972412	0.3225474953651428	0.1008891984820366	0.1705203652381897	0.2077863663434982	0.2691816389560699	0.2195797711610794	0.1322983354330063	0.1548774540424347	0.3067047297954559	0.2409917563199997	0.1213641315698624	0.1870919615030289	0.1546020656824112	0.1210158318281174	0.4555819928646088	0.1781559884548187	0.2579493820667267	0.3040225207805634	0.3789437413215637	0.2819330990314484	0.1137878149747849	0.2744714319705963	0.1852426528930664	0.1946331262588501	0.09806878864765167	0.1305053383111954	0.249010756611824	0.1518781930208206	0.1272386610507965	0.3890199661254883	0.1297367662191391	0.1968557089567184	0.176069587469101	0.1443588733673096	0.2771302461624146	0.1787128895521164	0.1123751103878021	0.1943721920251846	0.1628395467996597	0.1775751858949661	0.2080826014280319	0.2098962068557739	0.1792020201683044	0.1959606409072876	0.1359270662069321	0.2191223949193954	0.1571479141712189	0.1625502556562424	0.09207628667354584	0.1452852636575699	0.2408546954393387	0.166233986616135
30	45	2.037699937820435	1.480540990829468	1.214389085769653	2.548082590103149	2.170417547225952	1.423432469367981	2.318335771560669	1.852818489074707	1.79474949836731	2.280733585357666	3.032703876495361	1.510192275047302	1.19193172454834	2.332719087600708	2.152004241943359	1.534173011779785	1.638651371002197	2.472805738449097	2.047343730926514	1.443320274353027	1.801307082176208	1.173714876174927	1.923720479011536	1.294822931289673	2.018711090087891	1.985666632652283	2.295209646224976	0.9689647555351257	1.053991317749023	1.885450601577759	1.564979434013367	2.606907606124878	1.155877113342285	2.430570602416992	2.754173755645752	1.639340996742249	3.68121862411499	2.011498212814331	1.926568388938904	1.810681462287903	1.899436235427856	2.258667230606079	2.337371110916138	2.163290739059448	2.101848602294922	2.805911540985107	1.882827997207642	2.043492317199707	1.646543741226196	2.097191572189331	2.286480903625488	2.066782236099243	2.031347513198853	1.928127408027649	2.461690902709961	1.672562122344971	1.952525496482849	2.685480833053589	1.983231544494629	1.987682223320007	1.89042329788208	2.585612297058105	2.346549987792969	2.585180997848511	1.788156747817993	2.482223272323608	2.315859317779541	1.894897103309631	2.700902223587036	1.860477924346924	2.659981727600098	2.325016975402832	2.260096311569214	2.03020167350769	1.955739617347717	2.236308574676514	2.582826614379883	2.513948678970337	2.610545873641968	2.022533416748047	1.946549654006958	1.761457800865173	1.705034136772156	2.317614793777466	1.892566084861755	1.99664568901062	2.454321622848511	2.056877136230469	2.148851871490479	1.881491303443909	2.074595212936401	2.351307392120361	1.848243474960327	1.789878129959106	2.189713001251221	2.399396896362305	2.252091407775879	1.681070566177368	1.824779391288757	3.298904657363892	2.622119665145874	2.568123698234558
45	60	5.079539775848389	3.69822359085083	3.948282718658447	7.67838191986084	5.390555858612061	3.809713125228882	4.703221321105957	4.970169544219971	4.34802770614624	6.532869815826416	3.985210657119751	3.701569557189941	2.906575202941895	5.359067440032959	5.998286724090576	3.756687879562378	4.016616821289062	7.850405216217041	6.004337310791016	2.983413219451904	5.301078796386719	4.042009353637695	6.290724754333496	4.777535438537598	3.577078580856323	4.898091316223145	5.547169208526611	2.805170774459839	3.059211254119873	6.341075420379639	4.5013108253479	7.009023666381836	3.555140495300293	4.819846153259277	5.412728309631348	3.867901563644409	11.05996036529541	4.238588333129883	4.885107040405273	5.235074996948242	5.125162124633789	7.31601619720459	7.392412662506104	5.451207637786865	6.785519123077393	5.563949108123779	4.953829288482666	5.080827713012695	4.496445655822754	4.999290943145752	5.39735746383667	5.260806560516357	7.887497901916504	5.33897590637207	5.755358219146729	4.506078720092773	5.306540012359619	6.422703742980957	5.065969467163086	4.914330005645752	5.538591384887695	5.232157230377197	5.037465572357178	5.626999378204346	4.507779598236084	5.812269687652588	5.830926418304443	6.252250671386719	5.218711853027344	4.990671634674072	7.848926544189453	5.201077938079834	4.916587829589844	4.7533278465271	5.541153907775879	6.633805751800537	7.544651985168457	5.521979808807373	7.406209468841553	4.99976921081543	4.932807445526123	4.411781787872314	4.603868007659912	5.183554649353027	4.947496891021729	4.43275260925293	6.280162811279297	4.972570419311523	5.409854412078857	4.179146766662598	5.150000095367432	5.405735492706299	4.824688911437988	4.91934061050415	5.872553825378418	5.485724449157715	5.957006931304932	6.591394901275635	3.777801752090454	8.702083587646484	5.253577709197998	8.010368347167969
60	75	6.947349071502686	5.522288799285889	6.392431259155273	10.79223155975342	6.476607322692871	5.185538768768311	7.024580001831055	5.78736400604248	6.445192337036133	9.030121803283691	8.53687572479248	5.459625244140625	5.870100975036621	7.734889030456543	9.366293907165527	5.579547882080078	6.063890933990479	11.05514812469482	7.72964334487915	5.508883476257324	6.910053253173828	6.719234943389893	8.055034637451172	7.207111835479736	6.011719703674316	7.444654941558838	11.62410926818848	4.653316020965576	5.011934280395508	8.517909049987793	5.756288528442383	9.553716659545898	5.980860233306885	7.021720409393311	7.771875858306885	6.069818019866943	15.5006742477417	4.928863525390625	6.696587085723877	7.561253070831299	7.865804195404053	9.753731727600098	10.44701671600342	7.657797813415527	11.33379554748535	8.155937194824219	6.698801517486572	7.061385631561279	6.9870285987854	7.770865917205811	6.479184627532959	7.051488876342773	9.204584121704102	6.911783218383789	7.589107036590576	6.874855995178223	7.934041023254395	7.434262752532959	6.834425926208496	7.25053596496582	7.588062763214111	7.266281604766846	7.800784587860107	7.557513236999512	4.887144088745117	8.496776580810547	8.364569664001465	6.363817691802979	8.009975433349609	7.12270975112915	11.30146598815918	7.261277198791504	7.160872936248779	7.738189697265625	7.542716503143311	6.99637508392334	9.697896003723145	8.321757316589355	9.919225692749023	7.155314922332764	7.238317489624023	6.614850997924805	6.302855014801025	7.350653648376465	7.530009269714355	7.747509956359863	9.253430366516113	7.454026699066162	5.807184219360352	6.249188423156738	7.185732364654541	7.920356273651123	7.12909984588623	6.600204944610596	8.463847160339355	8.343493461608887	8.494166374206543	7.126162528991699	5.335657119750977	10.37113761901855	7.351758480072021	11.27953767776489
75	90	9.104789733886719	7.206345081329346	7.293498039245605	14.53255748748779	9.47966194152832	6.930642604827881	8.533761978149414	7.62031888961792	7.7024245262146	10.16850471496582	9.232561111450195	7.16815710067749	10.5862922668457	8.750363349914551	12.5244140625	7.272132873535156	8.273870468139648	14.12846183776855	10.22725677490234	6.458332538604736	9.995156288146973	9.023306846618652	10.17854881286621	8.102148056030273	8.683384895324707	8.307756423950195	13.47255611419678	6.286309242248535	6.784897327423096	10.08772659301758	7.990298748016357	12.16492176055908	8.079946517944336	8.544732093811035	9.536355972290039	8.720300674438477	21.40179824829102	7.393897533416748	8.812850952148438	9.93543529510498	9.646439552307129	12.83869934082031	14.02098274230957	10.50454044342041	12.95964431762695	10.30328464508057	8.900019645690918	8.86444091796875	9.677722930908203	9.844325065612793	8.704859733581543	9.597682952880859	12.64105319976807	10.03857040405273	9.859190940856934	9.46165657043457	9.949785232543945	9.73207950592041	9.427831649780273	9.111236572265625	10.62094974517822	8.893505096435547	9.497403144836426	10.68449020385742	8.878279685974121	11.3766622543335	9.918181419372559	10.50133323669434	8.205805778503418	10.01298141479492	14.69700527191162	8.294632911682129	9.140311241149902	9.635899543762207	9.742798805236816	11.76134586334229	12.93340015411377	9.702871322631836	13.75307178497314	8.910879135131836	9.047866821289062	8.863898277282715	10.19040966033936	9.33474063873291	10.10293388366699	9.856115341186523	13.71279239654541	9.952351570129395	9.124980926513672	9.499602317810059	10.5708179473877	10.52367305755615	9.48381519317627	8.855653762817383	10.88551902770996	9.7159423828125	10.72233772277832	10.39676284790039	7.451824188232422	12.80314159393311	10.24682712554932	14.97783422470093
90	105	11.87911796569824	9.359808921813965	10.07200336456299	17.79405784606934	12.10875797271729	9.367612838745117	11.4220666885376	9.943809509277344	9.256280899047852	13.84046363830566	10.9784107208252	8.953889846801758	9.566747665405273	10.8369779586792	17.88746452331543	9.394615173339844	10.01556015014648	17.82704162597656	13.26155567169189	9.047187805175781	11.28926467895508	10.0022087097168	13.6039457321167	13.91874313354492	11.71435356140137	10.30523777008057	16.86915397644043	8.066471099853516	9.116052627563477	13.17715835571289	10.42404937744141	14.60639953613281	10.45439910888672	10.81930732727051	12.21186065673828	10.4553689956665	24.74294281005859	8.392701148986816	11.7985315322876	12.60029888153076	11.23279571533203	14.52751922607422	17.64191627502441	12.63751411437988	16.76500701904297	13.57062244415283	11.26213645935059	12.2816104888916	10.64475917816162	11.79841709136963	11.19010448455811	12.23799610137939	16.30010032653809	12.2406587600708	11.84318447113037	11.22800064086914	12.7129602432251	10.70047760009766	12.09268188476562	11.40859317779541	13.15262985229492	12.65872573852539	12.81272602081299	13.59393501281738	8.766865730285645	12.75730419158936	11.37338256835938	11.7242488861084	12.16116619110107	12.1145191192627	17.52437973022461	11.20485591888428	11.78534889221191	12.99998188018799	12.46379470825195	15.15020847320557	17.34789276123047	11.67505550384521	18.0367431640625	12.08626842498779	11.77385807037354	9.690918922424316	10.9009313583374	11.94510269165039	12.7217493057251	12.72073459625244	16.21757125854492	12.60973262786865	11.27784061431885	11.97338390350342	13.30119228363037	10.63303852081299	12.13084030151367	11.81911277770996	14.12319278717041	12.54859161376953	12.95175266265869	15.35546970367432	8.7347412109375	13.31549549102783	12.77713871002197	18.61601543426514
105	120	13.55542945861816	10.9805326461792	11.52069187164307	19.41385841369629	12.92481231689453	10.40784072875977	13.33106517791748	13.69468688964844	11.19870281219482	15.90885066986084	11.47447299957275	10.00744915008545	15.02251243591309	13.89962863922119	15.16031837463379	10.97375202178955	12.10071468353271	19.71067810058594	15.56008243560791	10.47696208953857	13.56826210021973	12.31488227844238	14.99711036682129	10.60311317443848	9.740691184997559	12.37536430358887	22.54129791259766	9.629212379455566	10.76345825195312	16.09866905212402	10.95628356933594	16.39092826843262	12.25554656982422	13.74758625030518	14.11297130584717	13.37410831451416	28.17615127563477	10.77387619018555	13.09686183929443	15.19523620605469	14.14831256866455	15.62968730926514	20.25623893737793	14.43073558807373	17.96108818054199	15.43634605407715	13.32499980926514	11.13745498657227	14.5858097076416	15.20438003540039	12.6764440536499	16.01419067382812	18.46360206604004	13.92938804626465	13.58206176757812	13.28190422058105	14.46516799926758	14.4237232208252	14.06539154052734	14.32867431640625	15.47455978393555	13.42228412628174	14.86063957214355	19.35533142089844	10.23685264587402	20.31719779968262	12.77148342132568	13.25153923034668	14.57069873809814	14.50165939331055	20.46596145629883	13.14256381988525	13.80409145355225	14.79375839233398	14.04318523406982	15.20081615447998	19.95571517944336	15.37656116485596	19.47623252868652	15.13236618041992	12.89931964874268	12.74138641357422	15.00650596618652	14.28262042999268	14.29160404205322	14.27581310272217	19.78242492675781	14.97135734558105	12.67496299743652	13.71915721893311	14.53174591064453	12.2189302444458	14.58934307098389	13.1038875579834	15.8259220123291	14.15543270111084	15.95493602752686	13.54124641418457	11.83287143707275	16.81867980957031	12.28229427337646	20.42326736450195
120	135	15.13711357116699	12.62801170349121	14.29427528381348	23.08125495910645	15.78738784790039	10.66818714141846	16.00162887573242	14.3180046081543	11.36128425598145	16.33914947509766	15.22232151031494	10.71701812744141	19.17804908752441	16.42866134643555	19.55840682983398	12.97950458526611	13.45638084411621	22.79609870910645	16.24904632568359	12.97829246520996	13.42659950256348	12.64291572570801	16.76773262023926	13.26512336730957	13.48049736022949	13.18300151824951	23.9542350769043	11.31274795532227	12.44931507110596	16.40920066833496	12.11854076385498	18.96608543395996	14.27281665802002	15.6373119354248	14.65429401397705	14.4617977142334	31.61456108093262	11.95574378967285	14.96424674987793	18.1403751373291	16.01680374145508	18.66284370422363	23.41059112548828	15.87691593170166	20.74736595153809	17.7492790222168	15.14781761169434	14.48728370666504	16.09247398376465	16.77563858032227	14.43979835510254	17.43098831176758	21.60262680053711	16.8929615020752	15.12737560272217	15.29210567474365	16.8353157043457	14.70443344116211	15.89858341217041	15.49599742889404	18.06201934814453	15.92472267150879	17.15168380737305	19.20203399658203	12.15726375579834	19.48209190368652	16.63691329956055	17.20964241027832	12.63913440704346	16.81382179260254	25.48451232910156	13.27112579345703	15.98703575134277	17.5070858001709	15.76818084716797	18.48748016357422	23.71497917175293	17.3574390411377	21.38443756103516	16.67380332946777	15.58408832550049	13.3797779083252	16.52482032775879	15.54619026184082	18.32611846923828	16.44910621643066	22.8575382232666	16.47112846374512	15.66585254669189	16.06396675109863	17.10270690917969	16.63347816467285	17.55496788024902	15.87759780883789	19.73382186889648	16.08950805664062	18.07990646362305	16.88805961608887	12.15266799926758	19.15046501159668	15.927414894104	24.04249000549316
135	150	16.39205360412598	13.6125373840332	15.60875415802002	24.66413307189941	17.16523742675781	12.96478652954102	15.47245121002197	15.06600952148438	13.47482204437256	18.60118293762207	13.92991065979004	11.32974529266357	13.23745727539062	17.15482902526855	25.86422157287598	13.86780452728271	14.96833896636963	25.48683166503906	18.47257041931152	12.89444732666016	15.14449882507324	14.20259094238281	18.2363338470459	15.40557956695557	16.78506469726562	15.61173534393311	25.66803359985352	12.3871431350708	14.03976726531982	18.92383766174316	13.33094882965088	20.3924674987793	16.14289093017578	17.37712478637695	17.09524726867676	16.06756782531738	33.78903961181641	14.2061071395874	17.11626243591309	20.04048347473145	16.49125289916992	20.07096672058105	25.6083984375	17.48191070556641	23.81793594360352	19.53536415100098	16.37313270568848	13.88483238220215	17.91876602172852	18.10013580322266	16.60644912719727	16.80050849914551	24.73342323303223	17.71232223510742	17.31290817260742	17.62369155883789	18.97044563293457	16.99953079223633	18.52630424499512	17.21946334838867	20.16748428344727	17.42937469482422	18.93341827392578	20.94266319274902	14.42528820037842	20.38039779663086	15.19678783416748	16.34406280517578	16.77175331115723	16.8048210144043	27.32958030700684	13.24557590484619	15.87442970275879	18.67343521118164	18.23618316650391	19.58426094055176	25.50269508361816	17.49688720703125	25.70712471008301	17.86224555969238	17.0632152557373	13.826491355896	18.72294235229492	18.33029174804688	19.10698699951172	19.01779556274414	22.58626174926758	18.85655403137207	15.80840015411377	18.19965171813965	18.31292152404785	15.33154773712158	18.7932071685791	16.90522956848145	21.05337905883789	18.00132751464844	20.61918258666992	18.91018486022949	15.42164611816406	22.53667640686035	17.12129783630371	26.25392246246338
150	165	17.28008651733398	14.55301952362061	15.66595363616943	25.54895401000977	18.37104415893555	12.37007141113281	16.93271636962891	13.4646110534668	13.9279260635376	18.72088050842285	13.67922210693359	11.57501029968262	15.13771152496338	15.90289211273193	20.84087181091309	14.48209476470947	15.97714138031006	25.07759666442871	18.61846733093262	13.67200374603271	16.28672218322754	15.85529232025146	19.40522003173828	12.21537494659424	18.39389991760254	15.39974117279053	26.55638122558594	13.7462100982666	15.0039005279541	20.80698776245117	13.83893966674805	20.12855339050293	17.26095581054688	17.94129753112793	17.29119110107422	17.30534362792969	33.20471572875977	15.60111236572266	18.26446723937988	20.67415428161621	17.29014205932617	19.25720596313477	26.62711715698242	17.18456649780273	24.57967185974121	19.33531188964844	17.30005073547363	18.72834587097168	17.76988792419434	19.11987113952637	18.54809379577637	17.89877510070801	24.71347808837891	19.43966102600098	16.30667114257812	19.11637496948242	18.92493629455566	15.65437126159668	19.13125419616699	18.75840950012207	21.46017456054688	18.47055625915527	19.4916934967041	21.92060089111328	13.06705951690674	22.61245918273926	16.64853286743164	18.71038818359375	16.18435859680176	19.37698554992676	25.77292823791504	16.80314636230469	17.67374229431152	19.54944038391113	17.79851722717285	19.90519905090332	26.10969734191895	19.16888809204102	25.42840385437012	18.31440925598145	18.25070381164551	13.76103782653809	18.76774787902832	20.48601913452148	17.39953804016113	18.12389945983887	25.44062995910645	19.23606300354004	17.07493019104004	17.74447059631348	19.11073875427246	18.96141242980957	20.11959075927734	17.59450340270996	20.60972213745117	18.96330261230469	19.72227478027344	21.39614486694336	15.07381057739258	21.96651840209961	18.09444618225098	26.55877780914307
165	180	18.81688690185547	14.99325752258301	16.48701858520508	24.72056007385254	18.08287620544434	12.67721462249756	19.24711227416992	14.12858581542969	13.79160213470459	19.88321876525879	12.50056171417236	11.90666103363037	21.28372192382812	14.68235778808594	26.69927215576172	15.06099414825439	16.15324592590332	26.29583549499512	18.78290557861328	14.3713903427124	20.15474510192871	14.53809356689453	17.90818023681641	13.00439834594727	16.60408401489258	15.76760578155518	21.77522277832031	13.89584636688232	15.60249423980713	21.13068389892578	14.63367557525635	19.55473327636719	17.90743637084961	19.02004623413086	18.21919822692871	17.8802604675293	34.46102905273438	11.92678928375244	17.74081802368164	21.18322944641113	18.9797248840332	18.89316177368164	26.13614463806152	18.52014541625977	24.68435478210449	18.69079399108887	17.98255729675293	15.97823047637939	20.32264137268066	19.06999206542969	16.29599761962891	17.67940521240234	27.8502140045166	20.59990310668945	18.71821403503418	19.75200271606445	20.01578903198242	18.76011085510254	19.09561347961426	19.27442932128906	21.69990730285645	17.53078651428223	20.20647048950195	21.18239212036133	13.11425495147705	20.136474609375	18.21043968200684	19.03430938720703	18.41805267333984	18.58353805541992	28.95291328430176	14.06634712219238	17.86771583557129	21.57173538208008	18.06821823120117	19.45734024047852	25.504150390625	18.97947120666504	25.2372932434082	19.1563549041748	18.15062141418457	16.94640159606934	20.73106384277344	20.63185119628906	18.13561820983887	19.59279632568359	25.70357322692871	20.46288871765137	18.88251876831055	19.18240737915039	20.76890563964844	15.46178150177002	20.16629791259766	18.55173110961914	21.50665473937988	18.80819892883301	21.02217292785645	26.522705078125	14.08407211303711	21.83012962341309	18.62413787841797	26.896164894104
180	195	18.29866027832031	15.16282939910889	17.05300903320312	24.43659973144531	17.95967102050781	13.87621212005615	19.33236694335938	17.98532867431641	16.13484954833984	16.80241012573242	11.78069591522217	12.21293449401855	13.94635105133057	15.46896266937256	23.0333423614502	15.65776634216309	17.43185424804688	25.03081512451172	18.25805473327637	12.61445808410645	20.2341194152832	19.01577758789062	15.75864124298096	13.21139240264893	18.76501083374023	16.72592544555664	17.61393356323242	14.18576431274414	16.18624687194824	23.17390441894531	15.27919483184814	19.20697402954102	18.3181095123291	20.69111061096191	20.49001884460449	17.80521392822266	29.17276954650879	15.92640972137451	18.09374046325684	22.42997932434082	19.5254077911377	20.0150318145752	26.85930442810059	18.59933280944824	24.83794975280762	18.96568489074707	18.64193534851074	16.27381134033203	16.75705337524414	17.95591735839844	18.93866539001465	18.16545295715332	26.42538452148438	20.8359432220459	18.38142776489258	19.12027168273926	19.83244132995605	18.29052543640137	19.62336349487305	19.35732650756836	21.47256278991699	18.84367752075195	21.02492141723633	19.1728630065918	15.5887279510498	18.5884952545166	17.77955055236816	21.14465713500977	15.8945837020874	19.44323539733887	27.55426788330078	15.58524227142334	18.9083423614502	21.72495651245117	18.51364135742188	19.01585960388184	25.88794898986816	20.1110897064209	24.89739036560059	18.75003814697266	18.65895462036133	13.98482704162598	20.99782371520996	19.47316741943359	18.6297435760498	21.60513114929199	27.05250549316406	20.59319877624512	18.9965705871582	19.36310386657715	21.51555633544922	17.70764923095703	21.03844833374023	19.02510261535645	21.44887161254883	19.74332618713379	20.18986129760742	21.22690010070801	15.33795166015625	22.15902328491211	18.33580017089844	25.96149635314941
195	210	18.30734634399414	15.74716186523438	16.98876571655273	24.2756462097168	18.57902336120605	13.39064979553223	17.62678718566895	17.0948314666748	13.45368957519531	17.11001586914062	12.22850322723389	11.7462911605835	22.9842586517334	16.50512504577637	21.83843231201172	15.82846355438232	17.92987060546875	25.03665733337402	19.24782943725586	13.05038642883301	20.7246265411377	18.49556922912598	18.55108070373535	15.02338027954102	14.61524486541748	15.58692264556885	20.6597900390625	13.78752708435059	16.34091377258301	20.56700706481934	14.88265705108643	19.08886909484863	18.61823081970215	18.16925430297852	17.04452323913574	18.91102409362793	30.13494682312012	14.75152492523193	18.75084495544434	22.79068183898926	18.67733764648438	20.61814498901367	26.15840721130371	17.96438980102539	24.18712043762207	20.23015785217285	18.59900665283203	18.3342456817627	19.0291862487793	19.39382743835449	18.0539665222168	20.29794692993164	26.88814544677734	21.38020706176758	19.96342277526855	19.94821929931641	21.2711009979248	19.76333427429199	19.87007331848145	20.10527038574219	21.72531700134277	19.46142578125	20.86385726928711	22.37899589538574	16.27392578125	24.1613597869873	16.75960350036621	20.96284103393555	18.04731178283691	18.89266967773438	24.89336013793945	14.15171813964844	18.22905921936035	22.34332466125488	19.77639007568359	17.43065643310547	25.16401100158691	19.35250663757324	24.96303558349609	21.17248344421387	19.60040664672852	15.24768352508545	19.76507759094238	19.15921211242676	19.96195602416992	19.10270500183105	28.31005477905273	19.73855781555176	19.63103675842285	19.71549987792969	20.65634155273438	17.77421379089355	20.93726921081543	19.58261299133301	22.30808448791504	19.67974662780762	20.90192604064941	19.92234230041504	15.25577640533447	22.78227424621582	18.88154029846191	25.89890003204346
210	225	19.07773017883301	16.31241989135742	17.40532875061035	24.51009750366211	19.15512084960938	15.49681377410889	18.83790969848633	15.98062801361084	14.82470321655273	16.4998893737793	10.57892799377441	11.43648338317871	17.84669876098633	16.2646656036377	19.05932426452637	16.37104606628418	19.78896713256836	25.5400390625	17.56209564208984	13.90230846405029	21.03556823730469	17.83814430236816	18.42453765869141	13.58329486846924	17.71078681945801	17.46574020385742	18.55939102172852	14.23829650878906	17.25309562683105	19.66217613220215	14.69242382049561	18.8891487121582	19.08734703063965	19.56583023071289	18.75411415100098	19.67517471313477	31.42156219482422	15.20810127258301	19.27910995483398	23.31179046630859	18.47743034362793	20.28437614440918	26.61930847167969	20.901123046875	24.6667652130127	19.9807014465332	18.97966766357422	16.27349853515625	18.15131568908691	19.69721031188965	17.23281478881836	22.27699661254883	27.64340591430664	20.17145156860352	18.98832321166992	20.46910095214844	21.02013969421387	17.67304801940918	20.84596252441406	19.95862197875977	21.81130027770996	19.58550453186035	21.08489227294922	20.58310890197754	16.69684219360352	19.68930053710938	18.04723358154297	19.77965545654297	16.25693893432617	20.15060424804688	26.09161949157715	15.46344947814941	19.31600761413574	22.8308277130127	20.46753311157227	17.32493782043457	26.61243057250977	20.56464576721191	25.81313133239746	19.75151824951172	19.48691368103027	14.05040645599365	21.21001434326172	21.4608154296875	21.67764282226562	20.70889663696289	26.95975303649902	21.34387397766113	19.71960830688477	20.67463684082031	22.18646812438965	19.55591583251953	21.17577171325684	19.79680442810059	22.45187759399414	18.61354446411133	21.50730514526367	21.27637481689453	13.46696376800537	21.2561149597168	21.07123756408691	26.31152725219727
