frame_start	frame_end	highbinding	left_cerebral_white_matter	left_cerebellum_white_matter	left_cerebellum_cortex	left_thalamus	left_caudate	left_putamen	left_pallidum	brain_stem	left_hippocampus	left_amygdala	csf	left_accumbens_area	left_ventraldc	left_choroid_plexus	right_cerebral_white_matter	right_cerebellum_white_matter	right_cerebellum_cortex	right_thalamus	right_caudate	right_putamen	right_pallidum	right_hippocampus	right_amygdala	right_accumbens_area	right_ventraldc	right_choroid_plexus	aircavity	skull	vermis	pons	csf_extracerebral	head_extracerebral	ctx_lh_bankssts	ctx_lh_caudalanteriorcingulate	ctx_lh_caudalmiddlefrontal	ctx_lh_cuneus	ctx_lh_entorhinal	ctx_lh_fusiform	ctx_lh_inferiorparietal	ctx_lh_inferiortemporal	ctx_lh_isthmuscingulate	ctx_lh_lateraloccipital	ctx_lh_lateralorbitofrontal	ctx_lh_lingual	ctx_lh_medialorbitofrontal	ctx_lh_middletemporal	ctx_lh_parahippocampal	ctx_lh_paracentral	ctx_lh_parsopercularis	ctx_lh_parsorbitalis	ctx_lh_parstriangularis	ctx_lh_pericalcarine	ctx_lh_postcentral	ctx_lh_posteriorcingulate	ctx_lh_precentral	ctx_lh_precuneus	ctx_lh_rostralanteriorcingulate	ctx_lh_rostralmiddlefrontal	ctx_lh_superiorfrontal	ctx_lh_superiorparietal	ctx_lh_superiortemporal	ctx_lh_supramarginal	ctx_lh_frontalpole	ctx_lh_temporalpole	ctx_lh_transversetemporal	ctx_lh_insula	ctx_rh_bankssts	ctx_rh_caudalanteriorcingulate	ctx_rh_caudalmiddlefrontal	ctx_rh_cuneus	ctx_rh_entorhinal	ctx_rh_fusiform	ctx_rh_inferiorparietal	ctx_rh_inferiortemporal	ctx_rh_isthmuscingulate	ctx_rh_lateraloccipital	ctx_rh_lateralorbitofrontal	ctx_rh_lingual	ctx_rh_medialorbitofrontal	ctx_rh_middletemporal	ctx_rh_parahippocampal	ctx_rh_paracentral	ctx_rh_parsopercularis	ctx_rh_parsorbitalis	ctx_rh_parstriangularis	ctx_rh_pericalcarine	ctx_rh_postcentral	ctx_rh_posteriorcingulate	ctx_rh_precentral	ctx_rh_precuneus	ctx_rh_rostralanteriorcingulate	ctx_rh_rostralmiddlefrontal	ctx_rh_superiorfrontal	ctx_rh_superiorparietal	ctx_rh_superiortemporal	ctx_rh_supramarginal	ctx_rh_frontalpole	ctx_rh_temporalpole	ctx_rh_transversetemporal	ctx_rh_insula	reference
0	15	0.000313806900522	0.001922343857586384	0	5.017867454881753e-09	0.004305155016481876	6.098220637795748e-06	1.111155469857295e-07	2.298146739576623e-08	2.787323683151044e-05	1.612250244420466e-08	0.002586862538009882	0.0004574009799398482	0	0	0	0.00085999327711761	0	0	0	0	3.481191015453078e-07	0	1.311507276113844e-07	0	0	5.999390850774944e-05	0	2.30893931529863e-07	0.0001991147000808269	0	7.543183642155782e-07	0.001026507117785513	0.0001758367434376851	4.783406257047318e-05	0.0007322957972064614	0.0005990305216982961	0	0	5.645099736284465e-05	0	5.347200726646406e-08	0	0.0001432658900739625	0.001380509464070201	0	0	1.363562631695459e-07	0	0.0003568195970728993	0.001108932541683316	9.507252762830376e-09	0.00037871950189583	0	0.002854239894077182	0.07495152950286865	3.659559661173262e-05	4.524651012616232e-05	0	0.001323913340456784	0.004987621214240789	1.719011834211415e-06	0.0004059995408169925	9.388590171965916e-08	7.493705197703093e-05	0	0	0.0008462900295853615	3.835620736936107e-05	9.777931353482927e-09	0.0001028030892484821	0	0	0	0.001740934909321368	0	0	0	0	0	5.675441272501303e-08	0	0	0.000791732338257134	2.130541361111682e-06	2.234078692708863e-06	1.902527401398402e-05	0	1.926891127368435e-05	6.091017912268626e-09	0.0004209847538731992	0.003031629137694836	0.003462562104687095	7.546208507847041e-05	0.003772143041715026	3.55819720425643e-05	0.0002270610712002963	3.794492275943639e-09	0	0	0	3.226984404136601e-07	-6.9047910074e-05
15	30	0.503689408302307	0.3954756557941437	0.3271681368350983	0.5163897275924683	0.4423500597476959	0.4149134457111359	0.6208880543708801	0.4688441753387451	0.4892144799232483	0.5937042832374573	0.9006503224372864	0.3904742002487183	1.319018483161926	0.6604495048522949	0.3877369463443756	0.3858023881912231	0.4418796300888062	0.419565349817276	0.4637908935546875	0.3238670825958252	0.5039231181144714	0.3137228488922119	0.3915820121765137	0.5493807792663574	0.2825371026992798	0.5111995935440063	0.2679572999477386	0.3318682610988617	0.2732477486133575	0.3311901092529297	0.482573926448822	0.6377371549606323	0.2504988610744476	0.7174031138420105	0.5479024648666382	0.5233505368232727	0.2791417837142944	0.5047945976257324	0.3849862217903137	0.4639767706394196	0.4552990794181824	0.6108505725860596	0.5002707242965698	0.5538748502731323	0.7055797576904297	0.8598329424858093	0.481755793094635	0.5505915880203247	0.5115801692008972	0.6800138354301453	0.3941369354724884	0.6010460257530212	0.7094439268112183	0.5393028259277344	0.5053626894950867	0.5682306885719299	0.4274702966213226	0.8127158880233765	0.4088867902755737	0.5498974919319153	0.5451962947845459	0.6544289588928223	0.5091644525527954	0.3053876161575317	0.736325204372406	0.7674576044082642	0.5549608469009399	0.2718895375728607	0.5197663903236389	0.5054429173469543	0.2769228219985962	0.5067093968391418	0.5028702020645142	0.5090972781181335	0.4392216801643372	0.3521343469619751	0.4437777400016785	0.6283892393112183	0.552055835723877	0.4462139308452606	0.3260185420513153	0.5121411085128784	0.3695639669895172	0.7676637768745422	0.3312362730503082	0.3522689938545227	0.5303235650062561	0.468828409910202	0.475502610206604	0.4851111173629761	0.5396251082420349	0.5279743075370789	0.3873233497142792	0.5336854457855225	0.5063886046409607	0.5468650460243225	0.5668187737464905	0.3837175071239471	0.482187420129776	0.7533532977104187	0.5306949615478516	0.457862183451653
30	45	2.244218349456787	1.962116718292236	2.054276943206787	3.587323427200317	2.480711698532104	1.664849281311035	2.092233419418335	1.762405276298523	2.971575260162354	3.219114303588867	3.206604957580566	2.638400554656982	2.699495792388916	2.875462532043457	3.946828126907349	1.94954526424408	2.159631967544556	2.913540124893188	2.779551267623901	2.01195764541626	2.359856367111206	2.069092512130737	1.941076636314392	2.121524572372437	2.733105182647705	2.960262775421143	3.566164016723633	1.739123106002808	1.86196506023407	3.475658416748047	2.956733703613281	4.470711708068848	1.830068469047546	2.340761184692383	3.118248462677002	2.396805286407471	2.622511148452759	2.923262596130371	2.86890721321106	2.858006238937378	2.404129505157471	3.763513088226318	3.257529258728027	2.66442608833313	3.426313161849976	3.268763065338135	2.469213724136353	3.290651559829712	2.799423456192017	3.019142150878906	2.654135942459106	2.955679893493652	3.176328897476196	2.750266551971436	3.049990892410278	2.871585845947266	2.538025140762329	3.6575026512146	2.594742059707642	2.715733051300049	2.874109029769897	3.052250623703003	2.946359157562256	2.611977815628052	2.765796184539795	4.511707782745361	3.283457040786743	2.812423944473267	3.353475332260132	2.584402799606323	2.648896455764771	2.542086601257324	2.626598596572876	2.664096832275391	2.847001791000366	4.138679981231689	2.530410528182983	2.529024600982666	3.415915489196777	2.840449571609497	2.489264965057373	2.664297819137573	2.964220523834229	3.539709091186523	2.344251871109009	3.346467971801758	3.073474168777466	2.894572973251343	2.718933820724487	2.680352449417114	2.91174840927124	2.71889591217041	2.649837732315063	2.609224796295166	2.993706941604614	3.517522096633911	2.788079023361206	2.328606605529785	2.559414148330688	4.036775588989258	3.09317421913147	3.169366717338562
45	60	4.453510284423828	3.566645622253418	4.012552261352539	6.305048942565918	4.639677047729492	3.547560691833496	4.722328186035156	4.839917659759521	5.232800006866455	4.973325729370117	5.152084350585938	3.814674615859985	6.017694473266602	5.018078327178955	7.582829475402832	3.455050230026245	3.934354066848755	5.911118030548096	4.660420894622803	3.275863409042358	4.443935394287109	2.999144554138184	4.86394739151001	3.562995195388794	2.752586126327515	4.768758773803711	5.620777606964111	3.275187253952026	3.852304220199585	6.701926231384277	3.875246047973633	7.898070335388184	3.858985662460327	5.662947654724121	5.897298812866211	4.722332000732422	4.68526554107666	4.429457187652588	4.867123603820801	5.114235877990723	4.370101451873779	7.244996070861816	6.188021659851074	4.738659858703613	6.45761775970459	5.419538021087646	4.534934043884277	4.387285232543945	4.910885334014893	5.939775943756104	5.295297145843506	5.064279079437256	5.201103687286377	4.960887908935547	4.66696310043335	5.256857872009277	5.164017677307129	5.972285747528076	5.08503246307373	5.142471790313721	5.12416934967041	5.383182048797607	4.800449848175049	5.855605602264404	5.877988338470459	7.368337631225586	5.30848503112793	4.753013134002686	5.196003913879395	4.764496326446533	5.934500217437744	3.842980623245239	4.92331075668335	5.079587936401367	4.636279582977295	6.342333316802979	5.168215751647949	4.944361686706543	6.838441371917725	5.069033622741699	4.643400192260742	3.751501321792603	5.23635721206665	5.608584880828857	3.9351806640625	5.049002647399902	5.745248317718506	5.548294544219971	5.402352809906006	4.542291164398193	5.294721603393555	4.667762756347656	4.806083679199219	4.879480838775635	5.249401092529297	5.308961868286133	5.54173469543457	4.732151508331299	5.542686939239502	6.416188716888428	5.439915657043457	6.107166528701782
60	75	6.727263450622559	5.179530620574951	5.644501686096191	8.753850936889648	7.069836616516113	5.050518035888672	6.157441139221191	4.288404941558838	6.70003604888916	6.579258918762207	6.508318424224854	6.045053005218506	3.338170528411865	7.610849857330322	7.006035804748535	5.049656867980957	5.708653450012207	8.456550598144531	7.075274467468262	6.520109176635742	6.365864753723145	4.138851165771484	5.936756610870361	4.891285419464111	5.47556734085083	5.832790374755859	9.126083374023438	4.974039077758789	5.624557971954346	9.21397876739502	6.273088455200195	10.23362636566162	5.867639064788818	7.012598037719727	9.572170257568359	6.930453777313232	8.347846984863281	7.671643733978271	6.036025047302246	7.517955780029297	6.357030391693115	7.723773956298828	8.958624839782715	6.497056007385254	8.680411338806152	7.31102991104126	7.151542663574219	6.397570610046387	7.616876602172852	8.346474647521973	6.107339859008789	7.359851360321045	7.454710960388184	7.518213272094727	7.431973934173584	7.548258781433105	6.975269317626953	7.855959415435791	7.196670532226562	6.609134674072266	7.495729923248291	7.430352687835693	7.30295467376709	6.61033821105957	6.549308776855469	7.677675247192383	7.90213680267334	6.366116523742676	6.039394378662109	6.365189075469971	9.686551094055176	4.261303901672363	6.562036514282227	7.80878734588623	6.681265354156494	7.788537502288818	7.648491859436035	7.216669082641602	9.031600952148438	7.593379974365234	6.482839107513428	8.137288093566895	6.991093635559082	6.765875816345215	5.647459030151367	7.172571182250977	8.611271858215332	7.552367687225342	6.924027919769287	7.460843563079834	7.584347248077393	7.122414112091064	7.178405284881592	6.729437828063965	7.631491661071777	7.708202838897705	6.750379085540771	5.687996864318848	6.621637344360352	10.85556793212891	7.151090145111084	8.67418098449707
75	90	7.670908451080322	6.509831428527832	7.182086944580078	11.42975616455078	8.195919990539551	6.276139736175537	8.091628074645996	5.944144725799561	7.295461654663086	9.690842628479004	7.1328125	6.853163242340088	8.096766471862793	9.637722015380859	10.30321502685547	6.610968589782715	7.054805755615234	9.979839324951172	7.595988750457764	5.429218292236328	8.254674911499023	6.42040491104126	9.185699462890625	5.631800174713135	8.17751407623291	9.475343704223633	10.0314359664917	6.711752891540527	7.293196678161621	8.69520378112793	7.428920269012451	12.37800216674805	7.896078109741211	9.335216522216797	9.810299873352051	9.108338356018066	10.38144302368164	7.581419467926025	8.541661262512207	9.792547225952148	7.893558979034424	11.32721138000488	12.03976821899414	7.640539646148682	11.10489845275879	8.963196754455566	9.137621879577637	8.377819061279297	10.230055809021	9.92021369934082	8.48238468170166	10.48368358612061	9.445059776306152	8.890302658081055	9.384324073791504	9.256964683532715	8.438845634460449	9.05376148223877	9.309004783630371	8.541721343994141	9.794101715087891	9.413271903991699	9.455641746520996	10.92156600952148	7.513366222381592	12.49562549591064	8.25499439239502	9.654630661010742	8.639699935913086	8.444914817810059	10.52020740509033	6.999511241912842	8.415358543395996	9.449230194091797	8.105660438537598	11.31506729125977	9.608463287353516	9.016379356384277	11.46114635467529	9.079327583312988	8.577733993530273	8.251496315002441	8.953448295593262	10.9788646697998	8.376452445983887	9.533685684204102	11.32676792144775	9.577020645141602	9.006799697875977	8.847010612487793	9.974202156066895	7.964788436889648	9.066723823547363	9.176543235778809	9.68980598449707	9.882393836975098	8.958765983581543	9.63924503326416	8.055933952331543	10.22340774536133	8.439153671264648	10.83360528945923
90	105	10.0927619934082	8.258843421936035	9.233729362487793	14.35434532165527	10.8235502243042	9.162651062011719	8.097112655639648	7.549051284790039	10.13862609863281	11.97335624694824	11.2216968536377	8.093940734863281	5.444262027740479	11.6553430557251	14.37907123565674	8.206643104553223	9.188738822937012	12.65754413604736	10.0053768157959	8.359211921691895	9.915173530578613	9.377677917480469	10.02759170532227	9.065195083618164	8.374220848083496	9.691511154174805	10.75964450836182	7.926886081695557	9.115498542785645	13.45153903961182	8.491315841674805	14.76656627655029	9.870903015136719	9.101656913757324	11.60078144073486	10.34563827514648	13.27057361602783	9.317466735839844	11.1132926940918	11.76235866546631	10.32797813415527	14.14729309082031	13.66229057312012	10.68710899353027	14.48439598083496	12.01272487640381	10.75606822967529	8.887650489807129	11.91279220581055	12.52250003814697	10.47501277923584	12.6741771697998	14.18335819244385	11.95755672454834	11.37807083129883	11.37137222290039	10.75777244567871	10.9417085647583	11.68010902404785	10.94052791595459	12.54215049743652	11.82717323303223	11.65835380554199	11.98303604125977	9.526576042175293	14.13297557830811	11.67037963867188	13.8870964050293	9.296267509460449	11.34214305877686	12.78913497924805	9.559252738952637	10.40926074981689	12.27984237670898	10.00410747528076	13.34611797332764	11.70593452453613	10.67402744293213	14.40373992919922	10.62924098968506	10.45957851409912	9.305117607116699	11.10384082794189	12.7081470489502	11.65665245056152	11.45323753356934	11.18491363525391	11.46506118774414	9.222194671630859	11.22125720977783	12.01002979278564	9.830783843994141	10.51187705993652	10.97039127349854	11.80091571807861	12.30045223236084	11.42543506622314	11.43515205383301	11.06183242797852	15.09690380096436	11.61141967773438	13.78963422775269
105	120	11.20302391052246	9.828542709350586	11.73770141601562	16.75520324707031	13.99365425109863	10.33857250213623	10.21782779693604	8.873769760131836	11.73753356933594	11.69530296325684	11.59213733673096	9.653627395629883	9.488969802856445	11.57207489013672	13.4956636428833	10.05718898773193	10.56706619262695	15.27858352661133	12.44558334350586	7.934398174285889	9.607560157775879	11.32550811767578	10.74932289123535	9.680371284484863	8.188636779785156	12.41877937316895	16.74328804016113	10.25722980499268	11.45096778869629	16.37708282470703	10.19397068023682	17.49467468261719	13.05491352081299	13.01360893249512	15.64277935028076	12.94582366943359	15.03846740722656	9.458369255065918	11.76392936706543	14.19449043273926	11.59696674346924	17.1190299987793	16.82464408874512	13.56941413879395	16.76825332641602	13.42124366760254	12.87726879119873	13.24642658233643	13.94212436676025	14.52176380157471	13.65149211883545	15.10935115814209	16.58029174804688	13.74934387207031	13.77638149261475	13.79238891601562	12.98992252349854	13.72407722473145	13.49862670898438	13.4412956237793	15.3480863571167	13.62177085876465	14.53203201293945	14.69527816772461	12.96335029602051	13.79952621459961	12.69424057006836	12.74372959136963	12.64303970336914	12.91432189941406	16.96954536437988	10.84976482391357	11.98259258270264	14.5617733001709	12.52024555206299	14.34566783905029	14.75615215301514	12.75212669372559	17.16056823730469	12.43054103851318	12.32569026947021	13.46936702728271	13.30924797058105	16.18824577331543	13.09666633605957	13.33590412139893	16.61386680603027	14.90700626373291	12.97650814056396	13.95717239379883	14.91498947143555	12.86476421356201	13.11936950683594	13.21360397338867	14.36276340484619	13.7746524810791	13.43422412872314	14.23125743865967	11.52656173706055	16.32245635986328	14.13223457336426	16.40674829483032
120	135	11.64274597167969	9.954142570495605	11.34269237518311	17.28611183166504	12.56289100646973	8.627968788146973	12.22084331512451	12.33914089202881	10.11442470550537	11.69730949401855	10.50366020202637	9.596966743469238	8.502410888671875	12.32315921783447	15.77413558959961	9.946144104003906	10.52539443969727	17.0710506439209	13.54347610473633	8.095901489257812	11.97796440124512	10.8401575088501	11.68326377868652	10.41050720214844	12.44778156280518	9.762279510498047	13.76113891601562	10.68246841430664	12.19145393371582	16.43229293823242	9.360875129699707	17.37323379516602	14.32763195037842	13.15396976470947	14.3466329574585	13.19351291656494	15.48488426208496	8.583845138549805	12.7900915145874	15.01157188415527	12.08885478973389	14.24188041687012	18.01380157470703	12.60209369659424	16.57222557067871	12.7469482421875	13.80795860290527	12.16805553436279	13.44222640991211	14.5874662399292	13.94778728485107	12.52231597900391	17.21159934997559	13.99123573303223	12.0355224609375	14.28790760040283	14.27928638458252	14.34511470794678	14.21837139129639	13.36233139038086	15.42498970031738	13.75618171691895	14.27663612365723	13.83377075195312	13.92643070220947	15.34922027587891	10.97716808319092	12.53655052185059	11.4606990814209	13.86461639404297	17.35987281799316	10.07611274719238	13.9990062713623	14.75854587554932	12.8945837020874	14.77387046813965	15.36400699615479	12.30543327331543	17.76295852661133	12.45213031768799	12.27994441986084	13.17717742919922	13.61536693572998	13.94625854492188	11.69883251190186	13.3281364440918	14.86947345733643	14.11070346832275	10.5930700302124	13.62744045257568	14.90851879119873	12.76691055297852	13.80183410644531	13.84783267974854	14.93702125549316	14.10878276824951	13.5249490737915	12.43615055084229	14.2351770401001	14.10051250457764	13.47715282440186	17.78393459320068
135	150	11.37252712249756	10.61744785308838	12.31251907348633	17.01316070556641	12.45159339904785	8.372503280639648	11.00129985809326	9.140600204467773	11.52072334289551	12.59816265106201	10.92282009124756	9.889009475708008	9.37641429901123	10.31608867645264	13.81754493713379	10.50658988952637	11.57384777069092	16.06059837341309	12.58219814300537	8.382175445556641	12.71812725067139	9.22419548034668	12.04508590698242	7.592087745666504	12.33708095550537	11.92617416381836	14.12093639373779	10.74147129058838	12.48614025115967	15.55638694763184	10.82555484771729	16.17366600036621	14.90779972076416	13.43051433563232	15.01524925231934	12.76638603210449	17.06515693664551	11.5314826965332	12.86304473876953	15.52393341064453	11.85071182250977	17.41401481628418	17.92038154602051	13.04279613494873	16.54841804504395	13.54643535614014	13.78415679931641	12.67246341705322	14.47656440734863	13.89903545379639	12.83450603485107	13.50672817230225	17.4403190612793	14.60245227813721	13.4584321975708	14.377028465271	14.32108020782471	13.08419990539551	15.21932506561279	14.39677906036377	15.51460075378418	14.22952079772949	15.03833961486816	14.31974029541016	11.96613597869873	15.91021251678467	11.606764793396	12.49150466918945	11.55036926269531	14.190749168396	17.5186939239502	10.48346138000488	12.59299182891846	14.74429416656494	13.37470054626465	12.88543224334717	14.96588897705078	13.80239486694336	17.98671340942383	13.63993167877197	12.59059524536133	12.18046569824219	14.71224880218506	14.02079486846924	12.1879243850708	14.31429100036621	16.31348037719727	15.72652435302734	13.51848697662354	14.60547828674316	15.15408515930176	12.72532558441162	13.99585056304932	13.42874050140381	15.3571891784668	13.95434188842773	14.16233825683594	12.25968933105469	10.32938194274902	16.48048782348633	12.58131980895996	17.16343593597412
150	165	12.23994445800781	10.74602603912354	11.86404132843018	17.28787803649902	11.79503536224365	11.21384429931641	12.96278667449951	11.63306045532227	11.3768892288208	10.74379825592041	9.532674789428711	9.031858444213867	10.71323871612549	12.47449207305908	17.46124267578125	10.9534912109375	12.21939563751221	16.53838348388672	12.04491519927979	8.016580581665039	12.30910968780518	10.91089534759521	10.63650226593018	7.906764507293701	9.682753562927246	10.61852836608887	11.5916109085083	11.00259971618652	12.59607887268066	16.63537406921387	9.747492790222168	15.72000598907471	15.00047302246094	14.02126312255859	13.3128547668457	13.70683574676514	16.70654296875	11.0700216293335	13.08123874664307	16.24835968017578	12.83720874786377	14.92317581176758	17.55693244934082	13.49566841125488	17.66797637939453	13.44628524780273	14.90443515777588	12.80544281005859	14.21981239318848	15.20380783081055	13.58650398254395	14.58429336547852	18.26076126098633	14.50621795654297	12.34686374664307	14.60773086547852	13.867751121521	14.1893367767334	15.00948333740234	14.52196598052979	16.02433395385742	14.93886566162109	14.92154693603516	12.34114837646484	11.56174278259277	17.34452819824219	12.04592323303223	13.97012996673584	13.51565456390381	14.88248443603516	16.58126258850098	7.763803958892822	13.79612922668457	15.95442962646484	12.76925373077393	14.9146089553833	16.49773788452148	12.96595764160156	16.50718116760254	13.33178234100342	14.0982837677002	13.39355182647705	13.38403606414795	15.52182388305664	14.0078010559082	14.93874168395996	16.43581581115723	15.09958839416504	13.88045406341553	14.100905418396	15.17688369750977	14.71205234527588	14.76875305175781	14.13559150695801	15.83698081970215	14.00520038604736	14.93007469177246	14.41756534576416	11.67223358154297	16.68931579589844	13.15584278106689	17.65443801879883
165	180	12.16343116760254	11.15882015228271	12.51551723480225	17.42131423950195	13.90658569335938	10.47351360321045	11.39283180236816	11.11471176147461	11.39835166931152	12.75466537475586	8.523717880249023	9.22612190246582	13.49165344238281	11.89491939544678	11.57592678070068	11.11174869537354	12.75857067108154	16.4040699005127	12.21250820159912	9.191207885742188	11.40442752838135	10.97909641265869	10.79376125335693	8.051349639892578	9.865890502929688	11.24759387969971	14.79467678070068	10.42822551727295	12.56502532958984	17.89162635803223	11.52611541748047	15.69814872741699	15.03702735900879	14.38771915435791	14.23898983001709	14.67473030090332	17.21895790100098	11.7762393951416	12.98787689208984	15.98944282531738	12.2944917678833	15.71370506286621	17.99939346313477	13.86872100830078	16.28564453125	13.67080116271973	14.83389472961426	11.50580310821533	14.860276222229	14.43116760253906	16.08328437805176	16.72496604919434	18.21700859069824	15.5505428314209	13.37756538391113	15.02189350128174	14.64427280426025	12.73449611663818	15.83292865753174	14.98685741424561	16.42083168029785	14.3690881729126	15.97170352935791	16.07149887084961	11.2288064956665	13.39126491546631	13.35618209838867	15.15238666534424	11.40113162994385	14.21430110931396	18.53376579284668	11.90116786956787	12.86417388916016	16.13828277587891	13.48114013671875	12.19337272644043	16.66098785400391	13.35993957519531	17.04469871520996	12.92064094543457	14.07338428497314	13.29716777801514	14.63747501373291	16.18771171569824	13.89744567871094	14.82030487060547	21.28326416015625	15.35274982452393	11.55583190917969	14.46348762512207	15.48577785491943	11.73820495605469	15.34243011474609	13.98857975006104	15.5821704864502	14.49094676971436	14.42856693267822	13.68054962158203	13.16561031341553	17.27751159667969	12.94683170318604	17.70028686523438
180	195	13.4689416885376	11.30988502502441	12.18644237518311	17.56377792358398	13.91949653625488	11.19152545928955	13.24285507202148	12.56851959228516	11.52498054504395	11.34692573547363	11.96320629119873	8.744579315185547	9.14030933380127	12.05571937561035	13.59291839599609	11.41285705566406	13.47879791259766	17.31259155273438	13.50159168243408	9.343535423278809	13.80782890319824	12.68621349334717	11.7921085357666	13.00455284118652	12.69675636291504	11.66468048095703	12.23220634460449	10.88150405883789	12.64871788024902	18.34517669677734	11.11816692352295	15.29714679718018	15.17499446868896	15.01873683929443	16.24968719482422	15.26108837127686	17.18306159973145	11.67447185516357	12.86995315551758	16.63264083862305	13.39888095855713	14.05634498596191	18.56036949157715	13.685302734375	17.49493980407715	14.54277896881104	14.57990550994873	11.52576541900635	15.76833248138428	15.07953262329102	16.36139678955078	16.51898956298828	17.07022094726562	15.20482158660889	12.76430416107178	15.35028648376465	14.86013221740723	13.88253879547119	15.73775386810303	14.53482151031494	16.90934181213379	13.91641426086426	15.52109718322754	15.80142498016357	10.88955783843994	16.35168266296387	13.41084766387939	13.84026622772217	12.39385318756104	15.70967197418213	15.8699312210083	8.618635177612305	14.84848976135254	17.37792778015137	13.17632293701172	14.72645950317383	16.1601390838623	13.30432891845703	17.20681762695312	14.10760974884033	13.88104248046875	11.54406452178955	15.91958713531494	16.11299514770508	13.4511833190918	14.88336086273193	17.09984016418457	15.59470462799072	14.88180446624756	15.05755043029785	15.23334503173828	13.88575744628906	15.00445365905762	14.53386116027832	16.40967559814453	14.46410751342773	15.10663032531738	12.73168277740479	10.80316638946533	13.7123966217041	13.70966148376465	18.29328536987305
195	210	12.99301052093506	11.53847885131836	12.69140625	17.08374404907227	13.06525993347168	10.48639488220215	14.82106494903564	10.67146110534668	11.07366847991943	10.68313503265381	11.16614723205566	9.45913028717041	13.89218521118164	12.06761646270752	12.03394031524658	11.44897747039795	12.78796672821045	18.19550704956055	11.97893714904785	9.627937316894531	12.58477973937988	11.65407180786133	9.609128952026367	8.517806053161621	13.12003612518311	11.02999305725098	10.7524938583374	10.43575477600098	12.49609661102295	19.73679542541504	11.93440723419189	15.39604377746582	15.22760009765625	16.0906982421875	13.43864917755127	15.6855354309082	18.16017532348633	11.79585647583008	14.01776027679443	17.04831695556641	13.24334907531738	12.93024063110352	16.75870895385742	13.80562686920166	17.84276390075684	15.60483360290527	15.75142192840576	13.74175930023193	15.78025531768799	15.47395038604736	14.22866821289062	15.52113056182861	17.35760498046875	15.40014553070068	13.65459728240967	14.94190216064453	14.56115436553955	13.99881458282471	16.32320022583008	15.17270660400391	16.75898742675781	14.37464427947998	15.89773273468018	16.54338836669922	12.4972038269043	16.92272186279297	13.21325874328613	15.30568218231201	14.32761096954346	15.30672264099121	17.69190979003906	10.51148986816406	14.90189170837402	16.98664665222168	14.23055076599121	16.43001556396484	16.4904613494873	12.85933494567871	18.68202018737793	13.84502220153809	13.84582328796387	11.62775897979736	14.34634494781494	18.15639686584473	14.80728244781494	15.72319793701172	17.59310340881348	15.48484134674072	13.51265525817871	15.05281162261963	15.99931335449219	13.32092761993408	15.62659072875977	14.79836368560791	16.05853080749512	14.03271007537842	16.14356422424316	15.3786449432373	10.01320648193359	15.76466178894043	13.94024085998535	18.49931812286377
210	225	13.38788890838623	11.50771236419678	13.06313514709473	17.45756721496582	13.78892707824707	10.48879051208496	12.46431827545166	11.21756649017334	11.66329669952393	12.06441307067871	11.04233264923096	8.906667709350586	15.31083869934082	11.60303115844727	14.58430767059326	11.61956691741943	12.55339431762695	17.73124885559082	13.1200475692749	10.63350486755371	13.7711763381958	11.27498817443848	10.95294189453125	11.10049057006836	14.3385066986084	10.63905048370361	12.66452789306641	10.3206787109375	12.59894275665283	16.37136459350586	10.43141269683838	15.31826782226562	15.19700622558594	14.57223606109619	17.73338508605957	14.7011661529541	18.27786254882812	11.90165328979492	13.66525650024414	16.3782844543457	14.25460243225098	16.21563911437988	17.54712867736816	13.21631813049316	17.38114166259766	14.48689937591553	15.66727352142334	11.27241039276123	13.92068386077881	15.80683517456055	15.05994510650635	14.85825061798096	17.14429092407227	16.45823097229004	12.66240787506104	15.70418167114258	15.10332775115967	15.23544120788574	16.82168197631836	15.3161563873291	16.38862228393555	16.13626670837402	16.31259727478027	14.13786602020264	13.34104537963867	14.54432678222656	13.07689762115479	14.37601757049561	13.67373847961426	15.53547191619873	17.79812049865723	11.04297637939453	13.34667682647705	17.08364677429199	14.27215385437012	13.74347114562988	16.81889915466309	14.63541889190674	18.45344543457031	14.31390762329102	14.41911888122559	13.74954319000244	16.16828346252441	14.89069080352783	14.15608310699463	14.70447254180908	19.08941078186035	16.17289733886719	14.01428604125977	15.24734497070312	15.73776817321777	14.19527912139893	15.84222793579102	14.43813228607178	17.01003456115723	13.9409351348877	15.46524047851562	15.99558734893799	11.14855003356934	14.732102394104	14.06561374664307	18.54063415527344
