frame_start	frame_end	highbinding	left_cerebral_white_matter	left_cerebellum_white_matter	left_cerebellum_cortex	left_thalamus	left_caudate	left_putamen	left_pallidum	brain_stem	left_hippocampus	left_amygdala	csf	left_accumbens_area	left_ventraldc	left_choroid_plexus	right_cerebral_white_matter	right_cerebellum_white_matter	right_cerebellum_cortex	right_thalamus	right_caudate	right_putamen	right_pallidum	right_hippocampus	right_amygdala	right_accumbens_area	right_ventraldc	right_choroid_plexus	aircavity	skull	vermis	pons	csf_extracerebral	head_extracerebral	ctx_lh_bankssts	ctx_lh_caudalanteriorcingulate	ctx_lh_caudalmiddlefrontal	ctx_lh_cuneus	ctx_lh_entorhinal	ctx_lh_fusiform	ctx_lh_inferiorparietal	ctx_lh_inferiortemporal	ctx_lh_isthmuscingulate	ctx_lh_lateraloccipital	ctx_lh_lateralorbitofrontal	ctx_lh_lingual	ctx_lh_medialorbitofrontal	ctx_lh_middletemporal	ctx_lh_parahippocampal	ctx_lh_paracentral	ctx_lh_parsopercularis	ctx_lh_parsorbitalis	ctx_lh_parstriangularis	ctx_lh_pericalcarine	ctx_lh_postcentral	ctx_lh_posteriorcingulate	ctx_lh_precentral	ctx_lh_precuneus	ctx_lh_rostralanteriorcingulate	ctx_lh_rostralmiddlefrontal	ctx_lh_superiorfrontal	ctx_lh_superiorparietal	ctx_lh_superiortemporal	ctx_lh_supramarginal	ctx_lh_frontalpole	ctx_lh_temporalpole	ctx_lh_transversetemporal	ctx_lh_insula	ctx_rh_bankssts	ctx_rh_caudalanteriorcingulate	ctx_rh_caudalmiddlefrontal	ctx_rh_cuneus	ctx_rh_entorhinal	ctx_rh_fusiform	ctx_rh_inferiorparietal	ctx_rh_inferiortemporal	ctx_rh_isthmuscingulate	ctx_rh_lateraloccipital	ctx_rh_lateralorbitofrontal	ctx_rh_lingual	ctx_rh_medialorbitofrontal	ctx_rh_middletemporal	ctx_rh_parahippocampal	ctx_rh_paracentral	ctx_rh_parsopercularis	ctx_rh_parsorbitalis	ctx_rh_parstriangularis	ctx_rh_pericalcarine	ctx_rh_postcentral	ctx_rh_posteriorcingulate	ctx_rh_precentral	ctx_rh_precuneus	ctx_rh_rostralanteriorcingulate	ctx_rh_rostralmiddlefrontal	ctx_rh_superiorfrontal	ctx_rh_superiorparietal	ctx_rh_superiortemporal	ctx_rh_supramarginal	ctx_rh_frontalpole	ctx_rh_temporalpole	ctx_rh_transversetemporal	ctx_rh_insula	reference
0	15	-1.0278083e-08	9.748013241051012e-08	0	0	0	0	0	0	0	0	0	0	0	0	0	1.021564433045796e-08	0	0	0	0	0	0	0	0	0	0	0	0	8.292612108107278e-08	0	0	7.747645303091133e-10	3.282268039583869e-07	0	0	0	0	0	0	0	0	0	0	0	0	0	0	0	1.533271074549702e-06	0	0	0	0	0	0	0	0	0	3.0962937075385e-11	2.946868846720463e-07	0	0	0	0	0	0	0	0	0	0	0	0	0	0	0	0	0	0	0	0	0	0	0	0	0	0	0	0	0	5.027384064604234e-10	0	0	0	2.154584777258606e-08	0	0	0	0	0	0	0	-6.109052e-09
15	30	0.062125183641911	0.07393653690814972	0.06406737864017487	0.03048662096261978	0.08438117802143097	0.0720348060131073	0.07996295392513275	0.1071895733475685	0.04926136881113052	0.03254978358745575	0.1095146238803864	0.04819339513778687	0.001141860266216099	0.1514500826597214	0.03462240099906921	0.0734851211309433	0.04322772845625877	0.02262815274298191	0.05730846896767616	0.0154985748231411	0.05904209613800049	0.02708734571933746	0.03561011701822281	0.01502617914229631	0.005246388725936413	0.03108214400708675	0.1243234649300575	0.01535097882151604	0.02296486124396324	0.003591402200981975	0.03582106530666351	0.08045107871294022	0.01186659745872021	0.02119677327573299	0.2286655455827713	0.09558481723070145	0.06725319474935532	0.1262781023979187	0.03117557056248188	0.09418365359306335	0.04641355574131012	0.05019402131438255	0.02816026285290718	0.09489569813013077	0.1079672798514366	0.1122676208615303	0.04777591302990913	0.1433099657297134	0.1331761926412582	0.04154147207736969	0.03318880498409271	0.01488070283085108	0.08852960914373398	0.08516009896993637	0.115291491150856	0.06013097986578941	0.1057830527424812	0.1391890048980713	0.08507765829563141	0.07919891923666	0.07354461401700974	0.1050605475902557	0.08523539453744888	0.05507528781890869	0.2072646021842957	0.1606569290161133	0.1184166595339775	0.0266982838511467	0.0534597709774971	0.04114679992198944	0.05718715488910675	0.01322010532021523	0.02821040526032448	0.1117255613207817	0.06595718115568161	0.02327208779752254	0.07154364883899689	0.03272863104939461	0.1301943212747574	0.06744959950447083	0.05927794799208641	0.01331570651382208	0.04330028966069221	0.048051867634058	0.04127036407589912	0.03821436688303947	0.06985264271497726	0.111411914229393	0.1464669406414032	0.1054048389196396	0.03458552062511444	0.04453903064131737	0.05733352527022362	0.06511415541172028	0.04829463362693787	0.1146417036652565	0.1006365641951561	0.01005647983402014	0.03094778023660183	0.01312741730362177	0.1502278596162796	0.019669075030833
30	45	1.474036455154419	1.083052515983582	1.151849389076233	1.425749897956848	1.746037244796753	1.274473309516907	1.533561229705811	1.417361974716187	1.750796318054199	2.057065010070801	2.489281177520752	1.409030199050903	1.445230007171631	2.04671049118042	2.269030570983887	1.111784934997559	1.085982322692871	1.470720648765564	1.463136434555054	0.8108630776405334	1.320690155029297	1.541151165962219	1.755300164222717	2.017951250076294	1.373956084251404	1.132381319999695	1.504252791404724	0.616243302822113	0.5004064440727234	1.957102060317993	1.51692259311676	2.525389909744263	0.3631722033023834	1.29908287525177	1.457329630851746	1.330621004104614	1.98040246963501	1.329338908195496	1.412238478660583	1.610643982887268	1.605065584182739	1.497687578201294	2.015638113021851	1.522153496742249	2.242546558380127	2.314751148223877	1.543512582778931	3.205128192901611	1.445455312728882	2.057073831558228	1.222725033760071	1.312398910522461	1.679284453392029	1.804306387901306	1.558488726615906	1.623733997344971	1.649971127510071	2.501691102981567	1.410283088684082	1.572189807891846	1.600323915481567	1.73151171207428	1.784085869789124	1.958412766456604	1.146662473678589	3.057516813278198	2.122892618179321	1.314525961875916	1.743638753890991	1.372649908065796	1.453753113746643	1.884365081787109	1.329607009887695	1.501477837562561	1.298095464706421	1.488705039024353	1.698297381401062	1.867332458496094	2.128538608551025	1.805778741836548	1.419058442115784	1.4345543384552	1.835158467292786	1.776791214942932	0.961267352104187	1.356334567070007	2.009015321731567	1.478358626365662	2.036634683609009	1.530729651451111	1.70062267780304	1.803670048713684	1.350797653198242	1.624295115470886	1.819620966911316	1.899916172027588	1.671615958213806	1.384292960166931	1.214334607124329	2.524312496185303	2.141505002975464	1.408357441425323
45	60	3.817009925842285	2.915799379348755	3.076285123825073	4.743051528930664	4.376581192016602	2.838815450668335	3.910051822662354	2.342970132827759	4.142658233642578	4.03242826461792	4.218348026275635	3.858006238937378	4.695991516113281	4.629491806030273	8.04644775390625	2.892164707183838	2.938342571258545	4.911856174468994	3.973821640014648	3.438899040222168	3.35811185836792	2.880138397216797	4.817440986633301	4.706045627593994	4.443281650543213	4.237597465515137	5.693461418151855	1.888920664787292	1.558051228523254	3.713878154754639	3.593432664871216	7.365469932556152	1.309157490730286	2.557848930358887	3.724401473999023	3.74542498588562	4.792881965637207	4.597505569458008	4.286376953125	3.95159912109375	3.905882358551025	4.690825939178467	5.040889739990234	3.54086971282959	6.567713737487793	4.378060340881348	3.806686878204346	3.262305498123169	4.144979953765869	4.879034519195557	3.450649738311768	4.392484664916992	4.814549446105957	4.335301876068115	4.3251953125	3.816104650497437	4.533122539520264	4.186995506286621	3.704786062240601	4.322429656982422	4.500757217407227	4.575274467468262	4.390883922576904	4.856257915496826	4.577935695648193	5.554733753204346	4.884108066558838	4.619789600372314	4.044393539428711	4.405985832214355	4.24591064453125	3.5378098487854	3.718110799789429	3.85540771484375	3.686774015426636	6.331913471221924	4.356598377227783	3.679028987884521	6.036211490631104	4.012367248535156	4.057085514068604	3.612977266311646	4.891278266906738	4.57188606262207	3.759798765182495	4.187747955322266	4.244971752166748	4.453456878662109	4.415141105651855	3.983621120452881	4.754882335662842	5.06524133682251	4.097543716430664	4.158246040344238	4.890150547027588	4.857629299163818	4.229945659637451	4.321846485137939	4.105995655059814	7.426826477050781	4.843457221984863	4.812063694000244
60	75	5.208160400390625	4.247002601623535	5.01772403717041	7.687105655670166	5.811105728149414	4.920161247253418	5.109160900115967	4.635720252990723	6.494566440582275	5.86653470993042	5.241237640380859	5.623116493225098	9.051486968994141	5.501064300537109	8.088151931762695	4.436984539031982	4.852074146270752	7.102540493011475	5.406641960144043	3.913209438323975	4.658881187438965	4.283453464508057	5.481115341186523	5.555828094482422	3.907912731170654	6.185904502868652	7.404298305511475	3.282119274139404	2.50687837600708	7.230347156524658	6.494348526000977	10.5650691986084	2.393454313278198	4.643376350402832	6.982907772064209	5.203202724456787	6.867066860198975	6.565472602844238	6.042155742645264	5.741734027862549	5.933638095855713	6.170875549316406	7.594232559204102	5.868915557861328	8.736970901489258	7.27849292755127	5.285518169403076	6.329484939575195	5.827430248260498	6.254296779632568	5.191667079925537	5.747298717498779	5.890311241149902	6.308063507080078	5.691083908081055	5.638851165771484	6.618094444274902	6.404991149902344	5.577517032623291	6.593010902404785	6.144023895263672	6.304235458374023	6.699750423431396	7.394888401031494	5.569725513458252	7.457898616790771	6.274450778961182	5.705509185791016	6.415816783905029	6.034757137298584	7.982105731964111	5.205440998077393	5.504716396331787	5.925481796264648	5.409899711608887	6.258830547332764	6.228665351867676	5.972081184387207	9.015335083007812	6.18993616104126	5.752405166625977	6.029123783111572	7.393433094024658	6.386941909790039	5.616196155548096	5.68134069442749	6.002014636993408	7.063136577606201	6.277251243591309	6.001819133758545	6.821174621582031	7.777674674987793	5.986522197723389	6.526062488555908	7.896826267242432	7.165470123291016	6.22897481918335	6.438701629638672	5.379724979400635	8.051426887512207	7.082149028778076	7.363682508468628
75	90	7.210210800170898	5.800572395324707	6.398715972900391	9.889674186706543	8.154090881347656	6.246708869934082	7.44138240814209	5.181882381439209	8.179372787475586	8.51591968536377	6.638699531555176	7.288958072662354	6.81850004196167	7.96258020401001	16.19448089599609	5.811928272247314	5.292888641357422	9.189641952514648	8.054862976074219	5.049911499023438	6.601194858551025	5.891109466552734	8.282703399658203	9.272560119628906	6.922274112701416	8.861056327819824	9.72972583770752	4.559438228607178	3.601626634597778	8.539219856262207	6.702310085296631	12.9608154296875	3.571913719177246	7.595842838287354	9.359862327575684	8.420753479003906	8.516002655029297	9.208060264587402	7.981107711791992	7.287374019622803	7.292625904083252	8.606475830078125	10.28834915161133	6.667322158813477	11.72498035430908	8.589496612548828	7.841055870056152	9.556254386901855	8.371555328369141	8.690970420837402	7.136819362640381	7.720680713653564	8.01756763458252	7.707962512969971	8.540886878967285	7.836087226867676	8.63851261138916	7.239568710327148	7.76080322265625	8.065949440002441	8.045008659362793	8.076072692871094	8.934209823608398	9.789789199829102	5.561943054199219	9.184325218200684	8.641510009765625	8.188991546630859	7.595596790313721	7.557005882263184	9.543821334838867	7.081512451171875	7.996566295623779	8.028939247131348	7.696671009063721	10.26485824584961	8.813576698303223	7.088394641876221	13.1052770614624	7.746518611907959	7.782344341278076	7.829842567443848	8.690505027770996	8.053820610046387	7.585866928100586	7.81611442565918	9.337389945983887	8.032872200012207	6.924810409545898	7.729238510131836	8.179895401000977	8.221220016479492	8.444986343383789	8.587666511535645	10.54185962677002	8.750217437744141	8.261164665222168	8.942157745361328	6.984441757202148	11.38488483428955	8.480975151062012	9.676114082336426
90	105	9.284370422363281	7.496602535247803	8.361409187316895	12.62878131866455	9.798061370849609	7.869871139526367	10.27157783508301	8.235936164855957	9.804038047790527	10.08612537384033	8.62058162689209	9.04655933380127	7.312270164489746	9.913084983825684	14.18917560577393	7.407804012298584	7.938064575195312	12.40592002868652	9.662823677062988	7.632498264312744	7.768253326416016	7.403856754302979	10.3750467300415	12.76325225830078	5.317418575286865	9.016129493713379	15.05889415740967	6.104147911071777	4.622225284576416	9.03423023223877	9.156786918640137	15.1062183380127	4.956048488616943	8.095525741577148	8.879654884338379	9.710239410400391	10.74158763885498	10.35966873168945	9.805489540100098	9.857994079589844	9.071147918701172	11.30267906188965	13.74990272521973	9.43946361541748	14.99634838104248	9.826066970825195	8.912310600280762	10.61727237701416	10.88440990447998	11.24111175537109	11.08399200439453	8.37879467010498	11.57791328430176	10.37229919433594	9.515728950500488	9.771365165710449	9.644711494445801	10.16737747192383	9.536212921142578	10.12896251678467	9.97337532043457	9.785487174987793	10.53297233581543	10.9980354309082	7.792094707489014	13.39038467407227	9.374556541442871	8.795270919799805	8.496674537658691	9.256093978881836	11.73716926574707	10.10055923461914	10.00583457946777	9.589859962463379	9.115561485290527	12.6470832824707	10.79218769073486	9.758410453796387	15.60972595214844	10.64337158203125	8.446829795837402	8.856270790100098	9.964360237121582	10.80433082580566	10.42055892944336	11.39104557037354	11.43073081970215	11.0811128616333	9.400295257568359	9.866305351257324	10.80912780761719	9.466039657592773	10.27817344665527	10.50579833984375	12.38607788085938	10.18367671966553	10.66895771026611	11.40850639343262	8.081100463867188	13.37831592559814	10.13991069793701	12.98127603530884
105	120	9.570266723632812	8.671867370605469	9.411379814147949	14.87032794952393	11.12247562408447	8.577302932739258	8.594327926635742	8.035857200622559	11.36182403564453	11.60374069213867	14.11064720153809	10.41687488555908	7.646190166473389	10.54818153381348	17.81623077392578	8.912252426147461	9.725831985473633	14.63616275787354	11.08798980712891	6.443527221679688	10.44258213043213	9.499748229980469	12.13719844818115	12.07104969024658	9.960367202758789	11.33418846130371	15.39081192016602	7.38265323638916	5.791853427886963	11.61316204071045	11.24697971343994	17.8018856048584	6.351996898651123	9.336021423339844	10.8047571182251	10.6075267791748	13.66691017150879	11.85932445526123	11.02757740020752	12.03860569000244	10.61347007751465	11.10976886749268	17.14157485961914	9.954252243041992	16.07049179077148	12.16334342956543	9.779109954833984	12.71505260467529	11.59720897674561	11.77085018157959	10.78061294555664	12.64914035797119	13.43357944488525	12.15446281433105	10.33998680114746	11.66605758666992	12.67499732971191	11.10838794708252	12.4242696762085	12.73141574859619	12.16907691955566	11.14993381500244	13.36595821380615	11.09749698638916	10.38632392883301	12.27664661407471	11.14970397949219	9.845104217529297	10.34232044219971	12.74631023406982	14.74867630004883	11.40950489044189	11.41162300109863	10.68349075317383	12.09188652038574	14.49656963348389	13.11661243438721	10.83127593994141	18.95805168151855	11.81653022766113	10.88376045227051	9.249387741088867	13.4775390625	12.49758148193359	10.02672481536865	12.28462409973145	15.19479084014893	12.3153829574585	10.40551376342773	12.35521030426025	13.68851757049561	12.8280086517334	12.38111877441406	12.49033546447754	14.80471801757812	10.69946384429932	11.07929420471191	13.34904861450195	9.852354049682617	15.56403160095215	13.40970993041992	15.18790054321289
120	135	9.628035545349121	8.242938041687012	10.13745307922363	14.43358707427979	9.804372787475586	7.998290538787842	9.57143497467041	7.773049354553223	12.12372970581055	9.271706581115723	8.407150268554688	9.802602767944336	7.962522029876709	10.43270111083984	20.90958213806152	8.699000358581543	9.909648895263672	15.21552753448486	9.116300582885742	7.892628192901611	11.06482887268066	6.950196743011475	10.66903877258301	10.07814121246338	8.344364166259766	9.468991279602051	16.38381767272949	7.987585544586182	6.133639812469482	14.43908882141113	9.899395942687988	17.43796920776367	7.060139179229736	10.08600044250488	8.784480094909668	10.54382228851318	13.09111213684082	12.7675724029541	11.26472473144531	11.58618545532227	10.19801330566406	10.96424007415771	16.29775047302246	9.950020790100098	16.81618499755859	12.57593536376953	9.999985694885254	9.41512393951416	12.97968673706055	12.20961380004883	10.33993816375732	12.71504974365234	12.11718845367432	11.83885955810547	9.773184776306152	10.54904174804688	11.86675930023193	10.15164661407471	11.45265197753906	12.33957862854004	13.54778099060059	10.59282207489014	11.93017768859863	12.27720928192139	11.21899509429932	12.25854110717773	10.59744453430176	9.21947193145752	8.320525169372559	11.42874336242676	16.20486450195312	11.06868171691895	11.78019237518311	11.21017742156982	10.93358898162842	12.91559791564941	13.14924144744873	9.754714012145996	17.31162071228027	12.59189891815186	9.529942512512207	9.317106246948242	12.46338367462158	11.46172904968262	10.48765659332275	10.49753761291504	15.26851272583008	13.46295928955078	8.295425415039062	11.833984375	12.75164222717285	14.84166622161865	12.28955268859863	12.13304805755615	14.34473991394043	11.59752178192139	12.12135982513428	10.38167190551758	8.906339645385742	17.30965423583984	13.06673717498779	15.30612277984619
135	150	8.543785095214844	8.209831237792969	9.635156631469727	13.61149215698242	8.81761360168457	7.025938034057617	7.994297504425049	7.075576782226562	9.849765777587891	10.31916999816895	7.659799098968506	8.875301361083984	10.40983486175537	10.02584266662598	15.22066307067871	8.235352516174316	8.956034660339355	13.87015724182129	10.09436511993408	7.280030250549316	9.314347267150879	9.246087074279785	10.24323558807373	8.150167465209961	8.246770858764648	8.214250564575195	17.15060234069824	8.160524368286133	6.173712253570557	12.00325393676758	9.248248100280762	14.46453189849854	7.471017360687256	10.94673633575439	8.151706695556641	11.10039806365967	13.08699893951416	13.82598876953125	10.91518306732178	11.35004615783691	9.842531204223633	10.53995609283447	15.30096435546875	9.801445007324219	15.79670429229736	11.66043281555176	9.597957611083984	8.28541088104248	10.65742111206055	9.902407646179199	10.55872249603271	11.38130569458008	13.05738830566406	10.98184871673584	10.27336692810059	10.98647308349609	11.29049301147461	10.0019006729126	11.04983234405518	11.62724781036377	11.6431999206543	10.21615505218506	12.54928493499756	10.25869464874268	8.968884468078613	9.310379981994629	9.834288597106934	9.100295066833496	8.913409233093262	11.43199443817139	13.83160400390625	8.740376472473145	10.89243602752686	10.47719573974609	9.395503997802734	14.14027786254883	12.73054122924805	9.050234794616699	15.84623241424561	9.455860137939453	9.865072250366211	8.541725158691406	10.06565093994141	11.00171566009521	9.328153610229492	10.06949806213379	13.25020885467529	11.86589908599854	8.308899879455566	10.48718643188477	11.37652397155762	9.915914535522461	11.98092079162598	11.71561145782471	13.42214202880859	10.27153873443604	10.37547016143799	14.14232540130615	7.104365825653076	16.09109497070312	9.983883857727051	14.3917031288147
150	165	8.739486694335938	8.296844482421875	9.576722145080566	13.6152868270874	9.685528755187988	7.306774139404297	7.921334743499756	7.629924774169922	9.254279136657715	8.966107368469238	10.5900821685791	7.848739624023438	4.353983879089355	10.36135959625244	13.70441341400146	8.28024959564209	9.323697090148926	14.4262809753418	9.854087829589844	7.037141799926758	8.934796333312988	5.144727230072021	9.623407363891602	7.070191383361816	7.604889869689941	9.059189796447754	12.4068717956543	7.298311233520508	6.16682767868042	11.41495895385742	10.17903423309326	13.38422203063965	7.777531623840332	8.148342132568359	8.708534240722656	10.87889862060547	11.92197322845459	12.15502071380615	10.20459651947021	11.17090702056885	9.361515998840332	10.75164699554443	15.14614772796631	10.33960342407227	14.40836715698242	11.1417236328125	9.566573143005371	7.697336196899414	10.8247241973877	11.44399452209473	10.98049354553223	11.74964332580566	12.38021564483643	11.02283477783203	10.75943183898926	10.80706787109375	11.58874416351318	9.824028015136719	11.47794628143311	11.51840496063232	11.36988258361816	9.893596649169922	12.55630493164062	10.97887134552002	7.241806983947754	10.59285736083984	9.524483680725098	9.060573577880859	9.932802200317383	12.01235675811768	12.4745922088623	8.983480453491211	10.24363422393799	11.40665340423584	10.37781715393066	14.03199100494385	13.18563079833984	9.920407295227051	14.65214729309082	10.29477024078369	10.2156286239624	8.216745376586914	12.30382061004639	10.96532821655273	12.19626140594482	12.15999412536621	15.11982154846191	10.61069297790527	9.092926025390625	10.98379325866699	11.72126865386963	10.78221702575684	11.99377346038818	12.19338893890381	13.44597911834717	9.112788200378418	10.87957859039307	11.71179676055908	7.149118423461914	11.95375347137451	10.34889125823975	14.81765651702881
165	180	8.68657112121582	8.30976390838623	9.732237815856934	13.34948635101318	9.008011817932129	7.020957946777344	9.129853248596191	8.788119316101074	8.703582763671875	10.70138072967529	11.15063762664795	9.165962219238281	12.19979858398438	9.591872215270996	14.31143760681152	8.500850677490234	11.29401111602783	13.45775318145752	9.682608604431152	6.702768325805664	10.17558097839355	8.559759140014648	9.30515193939209	10.35877895355225	9.22645378112793	7.893738746643066	12.66636562347412	7.680369853973389	6.302796363830566	12.81072521209717	10.30389976501465	12.91413402557373	7.966433048248291	9.064496994018555	10.80104351043701	10.56684589385986	13.64010143280029	11.10391139984131	10.81317329406738	11.99191665649414	10.11751461029053	10.99656963348389	15.34865760803223	10.12307834625244	13.74564933776855	10.11923503875732	10.70828819274902	9.657370567321777	12.4934139251709	11.88261127471924	11.5574197769165	11.03052425384521	10.52476978302002	11.24435997009277	10.15544033050537	11.30545330047607	11.66103363037109	10.17318725585938	11.59972858428955	11.62405681610107	11.96364688873291	9.785518646240234	12.12880420684814	9.972309112548828	7.930912494659424	9.824111938476562	9.515497207641602	9.996518135070801	10.88145160675049	10.3588228225708	15.15849781036377	12.05417442321777	10.53056335449219	11.69309329986572	9.325769424438477	11.3566780090332	12.33760166168213	9.607597351074219	15.61180400848389	11.12003040313721	9.249296188354492	10.30735492706299	12.10675811767578	11.28364849090576	10.57928466796875	11.19842052459717	12.43453979492188	11.43874549865723	9.507476806640625	11.21984767913818	11.84191226959229	12.13117599487305	11.01509475708008	11.96529865264893	13.51520919799805	9.546361923217773	11.44940567016602	11.15609645843506	10.64615058898926	13.91377925872803	9.898934364318848	14.1097583770752
180	195	9.717024803161621	8.555601119995117	9.619758605957031	13.05236911773682	10.10541152954102	7.769412040710449	10.61561965942383	8.779038429260254	8.567357063293457	9.281318664550781	9.83631706237793	8.160133361816406	7.559889793395996	8.840984344482422	15.67504787445068	8.575460433959961	8.893596649169922	13.30383110046387	9.545430183410645	8.127438545227051	8.707011222839355	7.899508476257324	8.267349243164062	6.434193134307861	9.235092163085938	6.831956386566162	16.72933006286621	7.331361293792725	6.067300796508789	11.55034637451172	9.527470588684082	12.53744697570801	7.960731029510498	11.69679641723633	10.42812061309814	11.13433361053467	14.20077800750732	10.50221633911133	11.32812595367432	11.39791107177734	10.21135234832764	9.022587776184082	14.96543788909912	10.18741989135742	14.59296607971191	10.63104248046875	10.54203796386719	9.977441787719727	12.22822093963623	11.53447437286377	12.18835735321045	11.38850688934326	14.85411548614502	9.97357177734375	9.013731956481934	10.6603364944458	11.70222568511963	10.23696708679199	11.51337337493896	11.92907619476318	11.93320751190186	10.13444137573242	11.38129043579102	11.31884670257568	8.962105751037598	13.33713531494141	10.2120532989502	10.68190670013428	7.751521587371826	10.6657247543335	14.75930213928223	10.23333168029785	11.47856140136719	10.57507133483887	9.380525588989258	11.83203983306885	12.095139503479	10.69905376434326	14.57095813751221	11.26876831054688	9.816286087036133	8.237793922424316	11.69852447509766	10.82681655883789	11.74874973297119	10.89048957824707	12.42971515655518	12.08130264282227	9.717419624328613	11.57584667205811	12.10109996795654	10.42450141906738	12.08566188812256	11.67923164367676	12.44680690765381	10.70966625213623	11.13398551940918	12.34435367584229	8.789173126220703	13.71716785430908	10.07321357727051	14.03797912597656
195	210	8.70428466796875	8.615801811218262	9.855531692504883	13.04848575592041	8.40659236907959	9.150059700012207	8.677891731262207	8.118680953979492	8.650921821594238	9.539676666259766	9.092434883117676	7.945265293121338	9.683652877807617	7.368720531463623	16.06479835510254	8.54662036895752	9.263089179992676	12.74064540863037	8.478870391845703	7.049768924713135	8.482990264892578	6.184814453125	8.827157974243164	8.354114532470703	8.673641204833984	7.776981353759766	12.52446460723877	7.707933902740479	6.221190452575684	12.44174003601074	8.54743480682373	12.27716255187988	8.092247009277344	10.11474704742432	8.693602561950684	10.54935836791992	12.66520118713379	10.31760120391846	11.26319885253906	12.59228610992432	9.51351261138916	10.67353534698486	14.75755977630615	10.10144329071045	13.84678745269775	10.409255027771	10.17440605163574	10.86003875732422	11.87854290008545	10.82536697387695	11.08126926422119	11.05795764923096	11.28998470306396	11.30812072753906	9.706789016723633	11.16968631744385	12.07763481140137	10.28348255157471	11.53892517089844	11.69176006317139	11.9648962020874	10.28949451446533	12.24266910552979	13.26850986480713	8.667705535888672	11.7938060760498	10.78498363494873	10.82875728607178	8.881597518920898	11.16477108001709	14.38851165771484	9.630742073059082	11.29098892211914	11.193359375	10.03714179992676	12.00944423675537	12.93161010742188	9.923613548278809	14.8376407623291	9.835817337036133	10.48772239685059	8.479230880737305	10.46642112731934	11.58241844177246	10.40282917022705	11.52701187133789	13.42735862731934	11.42768478393555	9.72409725189209	11.11832618713379	11.55288600921631	9.145956993103027	12.06249713897705	11.22390270233154	12.98561382293701	10.02181243896484	10.9294958114624	13.98906898498535	7.047928333282471	12.36821937561035	8.81268310546875	13.60491847991943
210	225	9.203510284423828	8.523467063903809	9.789095878601074	13.22641658782959	9.92924976348877	7.278249740600586	8.155051231384277	9.495046615600586	8.972964286804199	8.889792442321777	8.683856964111328	7.370317459106445	7.80546236038208	9.063014030456543	10.70730781555176	8.566139221191406	10.07280921936035	13.15415287017822	7.746760845184326	7.755037307739258	11.2113618850708	7.652749538421631	10.02799701690674	7.867196083068848	6.487736225128174	8.945310592651367	12.34863471984863	7.132352828979492	6.081647396087646	10.52962779998779	9.087325096130371	12.1297721862793	7.926975250244141	10.06696701049805	11.09653759002686	11.52215576171875	14.25152206420898	11.51197528839111	11.67938327789307	11.89389228820801	9.737107276916504	11.27639484405518	14.91233444213867	10.04677867889404	14.04184722900391	11.44930267333984	9.958466529846191	9.916230201721191	11.43678569793701	11.52717208862305	13.54447937011719	11.19250202178955	12.72712421417236	11.20946598052979	10.12116813659668	11.77576446533203	11.85312652587891	10.89640331268311	11.87465667724609	11.7098445892334	12.01194381713867	9.848648071289062	11.85410118103027	11.5365743637085	7.782548904418945	9.449666023254395	9.533199310302734	10.91703224182129	8.757412910461426	11.20423030853271	12.58930492401123	10.70349311828613	10.71028137207031	11.13567733764648	10.37480926513672	12.25577545166016	12.53495311737061	10.61629486083984	13.98403263092041	11.58609294891357	9.971745491027832	8.647333145141602	11.68298530578613	9.768374443054199	10.4365348815918	10.78987407684326	11.88722705841064	11.71049976348877	10.36417102813721	11.13946628570557	12.03315353393555	10.80460643768311	12.13541030883789	12.03278541564941	12.54206085205078	9.933358192443848	10.88984966278076	10.51384735107422	8.624221801757812	11.48955917358398	10.29475402832031	14.0908899307251
