frame_start	frame_end	highbinding	left_cerebral_white_matter	left_cerebellum_white_matter	left_cerebellum_cortex	left_thalamus	left_caudate	left_putamen	left_pallidum	brain_stem	left_hippocampus	left_amygdala	csf	left_accumbens_area	left_ventraldc	left_choroid_plexus	right_cerebral_white_matter	right_cerebellum_white_matter	right_cerebellum_cortex	right_thalamus	right_caudate	right_putamen	right_pallidum	right_hippocampus	right_amygdala	right_accumbens_area	right_ventraldc	right_choroid_plexus	aircavity	skull	vermis	pons	csf_extracerebral	head_extracerebral	ctx_lh_bankssts	ctx_lh_caudalanteriorcingulate	ctx_lh_caudalmiddlefrontal	ctx_lh_cuneus	ctx_lh_entorhinal	ctx_lh_fusiform	ctx_lh_inferiorparietal	ctx_lh_inferiortemporal	ctx_lh_isthmuscingulate	ctx_lh_lateraloccipital	ctx_lh_lateralorbitofrontal	ctx_lh_lingual	ctx_lh_medialorbitofrontal	ctx_lh_middletemporal	ctx_lh_parahippocampal	ctx_lh_paracentral	ctx_lh_parsopercularis	ctx_lh_parsorbitalis	ctx_lh_parstriangularis	ctx_lh_pericalcarine	ctx_lh_postcentral	ctx_lh_posteriorcingulate	ctx_lh_precentral	ctx_lh_precuneus	ctx_lh_rostralanteriorcingulate	ctx_lh_rostralmiddlefrontal	ctx_lh_superiorfrontal	ctx_lh_superiorparietal	ctx_lh_superiortemporal	ctx_lh_supramarginal	ctx_lh_frontalpole	ctx_lh_temporalpole	ctx_lh_transversetemporal	ctx_lh_insula	ctx_rh_bankssts	ctx_rh_caudalanteriorcingulate	ctx_rh_caudalmiddlefrontal	ctx_rh_cuneus	ctx_rh_entorhinal	ctx_rh_fusiform	ctx_rh_inferiorparietal	ctx_rh_inferiortemporal	ctx_rh_isthmuscingulate	ctx_rh_lateraloccipital	ctx_rh_lateralorbitofrontal	ctx_rh_lingual	ctx_rh_medialorbitofrontal	ctx_rh_middletemporal	ctx_rh_parahippocampal	ctx_rh_paracentral	ctx_rh_parsopercularis	ctx_rh_parsorbitalis	ctx_rh_parstriangularis	ctx_rh_pericalcarine	ctx_rh_postcentral	ctx_rh_posteriorcingulate	ctx_rh_precentral	ctx_rh_precuneus	ctx_rh_rostralanteriorcingulate	ctx_rh_rostralmiddlefrontal	ctx_rh_superiorfrontal	ctx_rh_superiorparietal	ctx_rh_superiortemporal	ctx_rh_supramarginal	ctx_rh_frontalpole	ctx_rh_temporalpole	ctx_rh_transversetemporal	ctx_rh_insula	reference
0	15	0.000140055184602	0	0	0	0	0	0	0	0	0	0	0	0	0	0	0.0001984833215828985	0	0	0	0	2.013924360610986e-09	0	0	0	0	0	0	0	0	0	0	0	0	0	0	0	0	0	0	0	0	0	0	0	0	0	0	0	0	0	0	0	0	0	0	0	0	0	0	0	0	0	0	0	0	0	0	0	0	0	0	0	0	0	0	0	0	0	0	0	0	0	0	0	0	0	0	0	0	0	0	0	1.300492103329526e-13	0	0	0	0	0	0	0	0.007395467720925808	3.565015902e-06
15	30	0.38523131608963	0.3151811361312866	0.3113735020160675	0.2520231008529663	0.3373568058013916	0.5515823364257812	0.3468697369098663	0.4070718884468079	0.2590922117233276	0.3830297291278839	0.4090171158313751	0.2776770293712616	0.3580682575702667	0.3290580213069916	0.03121211007237434	0.2270556539297104	0.2344338595867157	0.2462244182825089	0.3042384088039398	0.455552726984024	0.1609215438365936	0.3182019889354706	0.2281208485364914	0.2893410623073578	0.135180801153183	0.2108518481254578	0.1342514008283615	0.1925818026065826	0.1999511271715164	0.4185369610786438	0.4208725094795227	0.2573398351669312	0.1387431770563126	0.2719317376613617	0.2050565034151077	0.2510684430599213	0.2032193541526794	0.4719334840774536	0.3839959502220154	0.2042717486619949	0.2146240621805191	0.2956029772758484	0.2933817207813263	0.2400316298007965	0.124274268746376	0.3331695199012756	0.3205846548080444	0.4465471804141998	0.1790385693311691	0.4360540509223938	0.5331174731254578	0.40337073802948	0.1486261934041977	0.2372202575206757	0.4315081238746643	0.3622949719429016	0.1700358390808105	0.1812352240085602	0.4034674167633057	0.3324968218803406	0.1685582101345062	0.3924090564250946	0.3015597760677338	0.2144161909818649	0.6011658310890198	0.3601893186569214	0.2988232374191284	0.1752568185329437	0.4326666295528412	0.2052590250968933	0.2125525325536728	0.2581457793712616	0.2620797157287598	0.1397982388734818	0.3171388506889343	0.1694461554288864	0.2142102420330048	0.2080604135990143	0.2781182527542114	0.3866161406040192	0.215132936835289	0.2527945935726166	0.2256336808204651	0.2136295884847641	0.1757970005273819	0.2459510415792465	0.1752272397279739	0.2813270688056946	0.3413286805152893	0.2537081241607666	0.151467964053154	0.3945210576057434	0.226521372795105	0.2647710144519806	0.1850121319293976	0.2964012324810028	0.2245634198188782	0.3888733685016632	0.2000329196453094	0.1923572421073914	0.2257931530475616	0.247592911124229
30	45	2.369637250900269	1.696793675422668	1.756250381469727	2.358889579772949	2.117372512817383	2.185093402862549	2.07302188873291	1.582632303237915	2.441854476928711	3.056767463684082	3.03014612197876	2.369626760482788	2.809891700744629	2.897897005081177	1.671057462692261	1.807235360145569	1.819710254669189	3.014321327209473	2.861074209213257	2.014674425125122	1.96953809261322	1.89364218711853	3.059477567672729	3.306861639022827	1.174228668212891	2.459962129592896	3.636216878890991	1.137070894241333	1.283474802970886	3.448366641998291	2.836331129074097	3.225311994552612	1.333147883415222	2.222062587738037	3.008493423461914	2.097148418426514	2.436714887619019	2.007968902587891	2.578648567199707	2.431178092956543	2.106825113296509	2.093538761138916	2.442612409591675	2.445302724838257	2.853074073791504	2.579419612884521	2.137536525726318	2.465657711029053	1.739044785499573	2.672015905380249	2.221441745758057	2.526364088058472	2.112475395202637	2.653840780258179	3.074436902999878	2.424348592758179	2.507121086120605	2.914592742919922	2.556356430053711	2.194197177886963	2.035767793655396	2.514651775360107	2.381119966506958	2.21985650062561	2.536437749862671	3.696520090103149	3.18995213508606	2.223296165466309	2.746509075164795	2.525392293930054	2.926111221313477	2.402102947235107	2.341297388076782	2.038384437561035	2.092898607254028	2.670409917831421	2.823103189468384	2.533575296401978	3.017537832260132	2.544029235839844	2.524783611297607	2.247262716293335	2.492000341415405	2.695781230926514	2.358313798904419	2.444154977798462	2.114680528640747	2.374306201934814	2.404113531112671	2.393210887908936	2.051766157150269	2.625534772872925	2.264503002166748	2.366190195083618	2.481631517410278	3.027055025100708	2.677499294281006	2.028552293777466	1.761574387550354	2.933322191238403	3.725816249847412	2.697843670845032
45	60	4.515150547027588	3.842996120452881	4.305220603942871	6.624742031097412	4.714553356170654	4.133376598358154	5.211180686950684	4.774315357208252	5.030125141143799	5.561736583709717	6.63928747177124	5.027211666107178	3.360187530517578	5.801104068756104	8.817824363708496	3.75306510925293	3.963216781616211	8.149521827697754	5.260533332824707	3.452175140380859	3.889858484268188	3.975804090499878	5.884120941162109	5.847578525543213	3.386994600296021	4.450770378112793	7.467803955078125	2.713194608688354	3.122662544250488	7.981472492218018	5.198946952819824	7.46107006072998	3.497636556625366	5.644764423370361	4.921311855316162	4.867205619812012	6.372056007385254	4.747243404388428	4.828488826751709	5.265734195709229	5.669243335723877	5.918726921081543	6.189760208129883	4.541397571563721	7.579219818115234	4.635214805603027	5.154828071594238	4.949473857879639	4.610970973968506	5.33942174911499	5.743666648864746	5.317337512969971	5.735885143280029	5.702976703643799	4.956241607666016	5.68948221206665	5.313590049743652	5.456748962402344	5.375988960266113	4.863524913787842	5.45270824432373	5.410615921020508	5.944676876068115	4.592462062835693	5.352211952209473	6.852169036865234	5.576985836029053	6.311393737792969	5.32225227355957	4.452869892120361	7.695088386535645	3.795001268386841	4.387518882751465	5.141551971435547	4.938520908355713	6.598974704742432	7.252486228942871	4.864116191864014	7.000957489013672	5.008543968200684	5.821619987487793	4.931748390197754	5.46327018737793	5.916380405426025	4.574480533599854	5.068973541259766	5.847492218017578	5.611924648284912	4.881030559539795	5.177728176116943	4.693990230560303	5.924271583557129	5.005051136016846	5.107480049133301	5.385432243347168	5.833155155181885	5.231729507446289	4.954402446746826	5.523105144500732	7.349860668182373	5.462660312652588	7.588564395904541
60	72	6.726346015930176	5.538105010986328	5.509136199951172	9.445616722106934	7.862212657928467	5.763113975524902	6.442020893096924	4.583386421203613	6.700392246246338	7.4779372215271	6.935863018035889	7.145276546478271	7.837040901184082	6.743526935577393	13.37359237670898	5.64079761505127	5.644227027893066	11.23258399963379	7.327590942382812	5.274062156677246	6.382728576660156	5.705322742462158	8.359334945678711	6.1318359375	6.445206642150879	6.860572814941406	8.148880958557129	3.987375497817993	4.796787738800049	10.66896533966064	6.1041579246521	10.00823974609375	5.603428363800049	6.289997577667236	8.400677680969238	7.553231716156006	9.990735054016113	4.36992883682251	6.870115756988525	7.487860679626465	8.563624382019043	8.78162956237793	8.598417282104492	6.900315761566162	11.57773971557617	7.67595386505127	6.635368347167969	7.132589817047119	7.527198791503906	7.583453178405762	7.634181499481201	7.372566699981689	9.442417144775391	7.868031024932861	8.551013946533203	6.634892463684082	7.982559204101562	7.552824974060059	7.084124565124512	7.413926124572754	8.224146842956543	7.356123447418213	6.847837924957275	7.557591438293457	5.191174507141113	11.94051074981689	8.023653030395508	7.593768119812012	7.618022918701172	6.972202301025391	9.48093318939209	8.483954429626465	7.15982723236084	7.079710960388184	7.027944087982178	8.310626029968262	9.764081954956055	6.943798065185547	9.476676940917969	7.708446979522705	7.303963184356689	8.090351104736328	8.651931762695312	7.335108757019043	7.510490894317627	7.247467517852783	7.974609375	8.15679931640625	6.726208686828613	6.906806945800781	7.765537261962891	6.797478199005127	6.959529876708984	7.317382335662842	7.386832714080811	8.41987419128418	6.579725742340088	8.483652114868164	7.622560024261475	9.096115112304688	7.706182956695557	10.64237976074219
72	87	9.007610321044922	7.120213508605957	7.149861812591553	11.88137245178223	9.79951286315918	7.384068489074707	8.620223999023438	6.255781173706055	8.202887535095215	9.93618106842041	10.48202991485596	8.50007438659668	8.772558212280273	7.828814506530762	16.23938751220703	7.13262414932251	7.364678859710693	14.39376258850098	9.825758934020996	7.41405725479126	8.100565910339355	6.178553581237793	11.1052303314209	9.167770385742188	8.831062316894531	8.727456092834473	13.44879531860352	5.22234058380127	6.197113513946533	14.06908702850342	7.781153202056885	12.24264717102051	7.598609447479248	8.24531364440918	9.773266792297363	8.720626831054688	11.51277446746826	7.769031047821045	9.49122142791748	9.356924057006836	10.94471836090088	11.35361289978027	11.31407928466797	9.058576583862305	14.34423160552979	8.765350341796875	9.555684089660645	8.282245635986328	8.755949020385742	8.58436107635498	9.405649185180664	10.25473213195801	9.729949951171875	9.288105010986328	8.316980361938477	10.22598838806152	10.00496768951416	8.656013488769531	9.431682586669922	9.410791397094727	10.41419124603271	10.129958152771	10.57002735137939	9.40001106262207	8.820951461791992	11.58264923095703	10.3957691192627	9.645565986633301	9.253121376037598	8.811555862426758	12.6820821762085	9.45712947845459	9.083766937255859	9.136260032653809	9.240757942199707	12.3774299621582	13.0357608795166	8.841364860534668	12.02870559692383	8.771144866943359	9.553245544433594	8.89971923828125	9.704999923706055	10.23522090911865	8.331131935119629	9.666961669921875	9.518985748291016	9.918059349060059	9.296816825866699	9.618319511413574	9.80821704864502	7.723511695861816	8.930022239685059	9.249600410461426	9.909865379333496	10.36736106872559	9.246395111083984	8.771796226501465	8.463464736938477	12.31048011779785	10.71734619140625	13.58594465255737
87	102	10.05535411834717	8.608220100402832	9.597765922546387	14.44637107849121	10.46652221679688	8.625518798828125	8.976161956787109	7.850077152252197	10.38080883026123	12.66414451599121	9.577524185180664	11.16808700561523	10.84324836730957	9.858222007751465	19.41225624084473	8.758705139160156	8.835111618041992	16.88142585754395	11.34248542785645	8.666952133178711	9.685867309570312	7.785204410552979	10.97975921630859	10.39783096313477	8.364563941955566	11.12261390686035	16.80541038513184	6.720541477203369	7.866709232330322	20.93564224243164	8.923977851867676	14.43570423126221	9.549172401428223	12.23293304443359	8.801016807556152	10.94569301605225	15.33194065093994	6.981921672821045	10.44988059997559	11.69060325622559	11.96361827850342	13.30098724365234	14.37892150878906	12.2055082321167	16.31920051574707	11.31727027893066	11.72285270690918	10.61116504669189	11.39235496520996	11.98380279541016	11.21773338317871	11.80216789245605	8.906499862670898	12.11928939819336	10.47987747192383	11.48337554931641	12.05434131622314	11.74411582946777	11.26851177215576	11.11173343658447	13.40388298034668	10.89919281005859	12.47120189666748	10.69404315948486	10.35776233673096	12.41112518310547	11.16691970825195	12.18810081481934	10.90510654449463	11.09934329986572	16.10500717163086	9.032488822937012	11.17739868164062	11.83920860290527	10.42475509643555	13.72406101226807	15.71916580200195	11.37631320953369	15.11179256439209	10.97055053710938	11.80340671539307	9.51314640045166	10.5853443145752	11.54604721069336	10.97214698791504	11.30634117126465	13.11236190795898	11.47025775909424	11.52250957489014	11.65153312683105	11.75925064086914	10.58080196380615	10.72993087768555	11.67330741882324	12.39284420013428	12.45429229736328	11.21816158294678	12.75591945648193	9.627458572387695	16.26463890075684	12.62905120849609	16.21036100387573
102	117	12.37545490264893	10.03384494781494	9.84687328338623	15.76650333404541	12.58887577056885	9.825020790100098	12.08621215820312	10.19644355773926	11.3837366104126	14.02023506164551	12.3878231048584	11.74521160125732	12.73897075653076	12.76967716217041	28.98322105407715	10.32681941986084	10.81482028961182	19.99963188171387	14.0722484588623	11.02448081970215	10.75123500823975	9.570090293884277	13.6335506439209	13.77265644073486	11.05378818511963	11.62043571472168	14.87420082092285	7.962121486663818	9.32981014251709	18.05382347106934	9.729774475097656	15.99804782867432	11.55523681640625	11.59391117095947	11.69504261016846	12.95199108123779	15.41828346252441	9.568221092224121	12.66906452178955	13.73271465301514	13.74331188201904	13.74890041351318	16.90168380737305	11.83740425109863	16.85172653198242	12.39366912841797	12.86931896209717	10.09477424621582	12.54585075378418	15.81020545959473	10.30881977081299	13.49879741668701	14.42657279968262	14.30657196044922	11.64303207397461	13.39772033691406	13.12967109680176	12.55956077575684	12.97901248931885	12.59774494171143	14.59759998321533	13.42400360107422	13.38700580596924	12.21878147125244	9.503303527832031	15.67025566101074	12.71645355224609	12.91733455657959	12.09986877441406	12.98751735687256	19.77068901062012	12.055739402771	12.03111553192139	14.23577213287354	11.95978832244873	16.5993766784668	17.8741340637207	13.32774639129639	16.98785209655762	12.44506072998047	13.29781246185303	9.708353042602539	12.13235282897949	13.21479225158691	11.68084144592285	13.55662441253662	14.26339721679688	13.80359172821045	12.92818260192871	13.09724712371826	14.91862869262695	12.94498634338379	12.35259246826172	13.3922872543335	15.01469612121582	15.3010425567627	13.20298767089844	12.18586921691895	11.17238807678223	16.45614051818848	12.80911159515381	18.69693946838379
117	132	13.85550403594971	10.95622634887695	11.96158695220947	17.25956726074219	13.49962520599365	13.20795154571533	12.43746852874756	11.04138565063477	11.04493522644043	13.4425220489502	12.02136516571045	12.92662811279297	10.01531028747559	11.93914222717285	21.35198974609375	11.12383460998535	10.3294620513916	20.07664680480957	14.19521617889404	12.16041374206543	12.90252780914307	10.80649566650391	12.96261882781982	16.57785606384277	14.63775444030762	12.93575096130371	18.69963645935059	8.944051742553711	10.35757255554199	19.78713226318359	10.20925045013428	16.95699882507324	12.95322513580322	14.97366619110107	13.05093193054199	13.45671558380127	19.0196418762207	9.113801002502441	12.32563304901123	15.83791542053223	15.35886859893799	14.96091461181641	17.60963821411133	13.9000768661499	19.08543968200684	13.09716129302979	13.36497974395752	12.03264904022217	13.38188171386719	14.89804267883301	13.25211524963379	13.38165187835693	17.90870666503906	16.00687789916992	12.85701465606689	14.19622421264648	15.60892677307129	13.52791118621826	14.58191108703613	14.54590034484863	15.90834999084473	14.25762271881104	14.90264987945557	10.9069242477417	11.36236190795898	17.84417152404785	13.41312122344971	15.89061164855957	12.98751544952393	14.5169506072998	20.27903938293457	9.592768669128418	13.25478553771973	13.93376636505127	13.48783206939697	16.64800262451172	19.24176597595215	14.57555294036865	19.06020164489746	14.52549171447754	14.981125831604	12.49792194366455	15.19330310821533	13.98684883117676	14.78653049468994	14.07816982269287	17.33977127075195	15.40700626373291	14.01551914215088	14.91682434082031	15.15858459472656	11.81492137908936	13.12620639801025	15.22368049621582	15.64162826538086	15.49659633636475	15.45401954650879	17.04307556152344	12.59022235870361	19.41562271118164	14.58207130432129	19.43025779724121
132	147	12.9438362121582	11.76007747650146	12.29037189483643	18.03095054626465	13.52287006378174	11.33456230163574	13.29541778564453	12.14040184020996	11.39439487457275	14.54642581939697	13.92675971984863	12.46649265289307	10.57311344146729	11.75004577636719	19.59274864196777	11.8541784286499	12.74303913116455	20.93750762939453	15.06094074249268	10.70643711090088	11.13430690765381	10.47653770446777	12.58775806427002	15.58529567718506	14.2785062789917	12.60743522644043	18.49787712097168	9.111758232116699	10.90084743499756	17.88644790649414	9.701677322387695	17.30094146728516	14.40845584869385	14.61379051208496	15.19932746887207	15.05697345733643	18.66819000244141	11.607253074646	15.74267196655273	16.6883544921875	15.5243444442749	15.96541500091553	18.76529502868652	14.26591491699219	22.07199668884277	14.91287708282471	14.61819744110107	11.31004238128662	13.48426151275635	15.77885341644287	16.99160003662109	16.02962684631348	17.99959945678711	15.87998676300049	13.5328893661499	16.2779541015625	16.41854667663574	12.93811988830566	15.41765785217285	15.26755523681641	16.79914283752441	14.54172325134277	15.275221824646	16.131103515625	9.898667335510254	20.11915016174316	13.32481384277344	14.23301315307617	13.44239902496338	14.62882328033447	19.60197830200195	12.44104766845703	14.12658214569092	15.74059104919434	14.62740993499756	15.82228946685791	20.69540977478027	14.44906520843506	17.79986190795898	14.80086898803711	15.63459205627441	12.80206489562988	17.24517440795898	14.8719367980957	16.62776756286621	14.19850540161133	17.94836044311523	17.06009292602539	13.54660797119141	15.76436614990234	15.74312877655029	13.99506282806396	14.89271259307861	15.61720371246338	17.50439071655273	15.2569522857666	15.47678852081299	14.35318470001221	13.1660099029541	20.20235252380371	14.58404445648193	20.36453247070312
147	162	14.64305114746094	12.28726959228516	12.67938804626465	18.32717704772949	14.84845733642578	12.54931259155273	14.0609188079834	10.43805408477783	11.65347766876221	12.45884132385254	12.99025630950928	12.62701892852783	12.95855140686035	12.56979751586914	22.03259468078613	12.32025623321533	13.09941005706787	22.08216857910156	16.22191429138184	10.47644424438477	14.65322208404541	13.96708488464355	14.09352016448975	13.00928115844727	10.83034133911133	11.78910636901855	21.03265571594238	9.917092323303223	11.48147583007812	20.79048156738281	11.14618396759033	17.41252517700195	15.51335048675537	17.70275688171387	13.97511196136475	16.21560096740723	19.91733360290527	11.82271003723145	15.92844486236572	17.48655891418457	16.19250869750977	15.65689468383789	20.50836372375488	13.82879829406738	20.80279159545898	13.66534996032715	15.57194328308105	12.25016307830811	16.32314109802246	18.59853935241699	14.18860244750977	15.34395790100098	20.58719825744629	16.70166015625	14.34094905853271	17.04275131225586	16.02499389648438	10.85996627807617	16.7221565246582	15.7954626083374	18.5819263458252	15.7981595993042	17.25847816467285	15.0314359664917	12.87585163116455	19.86015701293945	13.71562194824219	15.22378540039062	14.47832679748535	15.82391834259033	21.94662666320801	13.06863212585449	14.8654260635376	16.18462944030762	14.16017913818359	17.78427124023438	22.29322624206543	14.65314102172852	19.33757591247559	14.85672187805176	15.56116008758545	13.5637321472168	16.41508674621582	15.23465061187744	15.19297790527344	15.77162837982178	18.07916450500488	17.43714332580566	13.19320201873779	15.92771053314209	17.27742576599121	12.57383632659912	16.05774116516113	16.10933113098145	17.29778671264648	16.25792503356934	15.80286884307861	17.7259578704834	13.9388952255249	19.46977424621582	15.17043018341064	21.12709331512451
162	177	14.36287117004395	12.77139949798584	13.80005741119385	18.9908332824707	15.18086719512939	10.92089939117432	12.61253356933594	12.69939613342285	12.0072193145752	13.73871898651123	13.84602451324463	11.98417663574219	11.24451923370361	12.81265830993652	20.77900886535645	12.8329496383667	14.43479633331299	21.02247428894043	16.04339599609375	12.23612403869629	14.8948392868042	13.78093147277832	13.50925445556641	11.62382125854492	12.44688320159912	12.51650714874268	15.14975833892822	10.21414089202881	11.95710468292236	22.6900463104248	12.31113147735596	17.0754337310791	16.11271286010742	16.21855163574219	15.40429306030273	17.3387622833252	18.46859741210938	13.24557876586914	15.84585762023926	17.71634483337402	16.57329177856445	16.3184700012207	19.13425254821777	15.14417171478271	22.52337265014648	15.55940437316895	14.67359924316406	11.29999542236328	15.27800559997559	16.45503234863281	16.65919303894043	17.6397876739502	19.89743614196777	17.85111999511719	13.75416660308838	17.18903160095215	17.53412055969238	13.80952262878418	16.13928985595703	16.35895156860352	18.7103328704834	15.01476192474365	16.95074272155762	15.87327671051025	10.76462554931641	16.78329467773438	13.57404041290283	14.83295631408691	12.15962028503418	17.09553909301758	22.7900390625	12.60853004455566	16.1873950958252	16.78981399536133	14.10011577606201	15.63558673858643	22.22382736206055	16.06723785400391	18.90138244628906	14.81845664978027	16.11448287963867	13.98841762542725	15.48797035217285	14.87939453125	17.00240325927734	16.56013488769531	18.05441856384277	16.71359825134277	14.6746826171875	16.02226448059082	16.91277503967285	14.1378812789917	16.79214668273926	16.48126792907715	18.23292350769043	16.77974510192871	15.62444496154785	17.03439903259277	11.60324764251709	18.81721305847168	15.50550842285156	20.92837429046631
177	192	14.87911987304688	13.03252792358398	13.69735240936279	18.1357307434082	14.36394500732422	12.75704193115234	14.71764373779297	13.69073963165283	12.72135925292969	15.1569185256958	12.82760620117188	13.17962837219238	15.31680393218994	14.97704887390137	18.34848976135254	13.3413200378418	14.65091800689697	21.05709075927734	15.48436737060547	12.25504016876221	15.44843101501465	15.95713710784912	15.16603374481201	12.22576904296875	11.47330760955811	12.74062728881836	19.77091979980469	10.21596527099609	12.27853775024414	19.30677795410156	11.79746341705322	16.81561660766602	16.7010612487793	16.3227710723877	14.56373596191406	15.69057846069336	18.71353912353516	13.93953037261963	15.35763835906982	18.34476661682129	15.96059417724609	16.6430835723877	21.85031127929688	16.03382682800293	20.90341758728027	14.85929393768311	16.12371444702148	11.58377361297607	15.24352645874023	16.80557441711426	16.71945571899414	18.60064315795898	18.97373199462891	17.91909599304199	13.94881057739258	17.8189697265625	17.22205352783203	12.4899787902832	17.55381965637207	16.24679565429688	18.16976928710938	16.05690765380859	16.09159088134766	14.14471435546875	11.79816246032715	18.93270111083984	15.43523979187012	16.39329528808594	13.33401584625244	16.5350513458252	22.44950675964355	12.59258270263672	15.69060707092285	17.13228416442871	16.00326156616211	16.02076721191406	21.44484519958496	16.0540714263916	20.4802074432373	14.52013778686523	17.20083236694336	12.1751594543457	17.44394111633301	15.26830577850342	14.9242639541626	17.03597640991211	17.82107734680176	18.20234870910645	15.078049659729	16.66905975341797	17.55937576293945	14.85444355010986	17.1180534362793	16.90480804443359	17.12772560119629	17.15009880065918	16.91476249694824	15.978684425354	12.07608699798584	19.71309852600098	15.08407974243164	20.52578449249268
192	207	15.18593883514404	13.51020908355713	13.95456504821777	18.65167617797852	15.4999475479126	12.45951461791992	15.2898645401001	12.60998725891113	12.32124328613281	14.63105773925781	12.942702293396	12.89495182037354	15.06911563873291	14.22122859954834	16.87185287475586	13.20227527618408	14.55390930175781	20.59445953369141	16.32110214233398	11.73866367340088	15.14758014678955	12.48578071594238	14.77611827850342	13.61789512634277	11.16072082519531	11.48707866668701	17.1232795715332	9.968934059143066	12.31074619293213	20.73201560974121	12.23754215240479	16.52198600769043	17.02048683166504	18.95927047729492	15.09807109832764	15.83133697509766	21.66263771057129	14.94255352020264	16.65066528320312	19.53031921386719	17.67196083068848	16.38591003417969	20.30255889892578	16.61705780029297	20.10254287719727	15.46848583221436	16.3794002532959	13.02414608001709	18.7135009765625	15.73185443878174	15.39554309844971	18.20037841796875	21.25726509094238	17.95010566711426	15.66987895965576	17.13021659851074	18.06108856201172	15.2763729095459	17.55763053894043	16.90448951721191	19.11934089660645	15.60077476501465	17.34569931030273	18.42101287841797	11.2822093963623	18.89847183227539	15.34898376464844	18.95353889465332	15.05306339263916	15.1590633392334	21.70110321044922	11.39266300201416	15.83366394042969	17.78107452392578	15.03345966339111	14.82108306884766	22.16242599487305	14.51264476776123	19.42787170410156	16.29249000549316	16.52135848999023	13.69823932647705	17.24614906311035	16.92712783813477	16.14046096801758	17.15103149414062	18.85649490356445	16.78996086120605	14.92727851867676	16.90329551696777	18.32500839233398	15.2345142364502	16.93753623962402	17.5068244934082	18.25881576538086	16.91399574279785	15.53810882568359	14.68400382995605	13.63915920257568	16.26806831359863	14.40892028808594	20.51780033111572
207	222	15.60354518890381	13.36308193206787	13.73358631134033	18.22355079650879	14.09887409210205	14.85971069335938	14.44518852233887	12.94079399108887	11.42820453643799	12.99497318267822	10.99629878997803	12.09618377685547	12.72152423858643	13.16695880889893	16.5631160736084	13.40524482727051	13.70648956298828	20.19109916687012	14.8739070892334	12.63809585571289	16.50883865356445	12.39331436157227	13.06275844573975	10.79770565032959	11.22179794311523	12.26580810546875	15.39781093597412	10.43624591827393	12.28213119506836	18.50762176513672	11.32247066497803	16.35419845581055	17.21589660644531	15.76645469665527	15.89182090759277	16.51080513000488	20.56387519836426	10.2442741394043	15.60673046112061	19.1295051574707	17.87307548522949	15.38106346130371	20.34122848510742	15.50407028198242	22.17831993103027	16.48962020874023	16.81404685974121	14.61787891387939	15.5044641494751	17.90297317504883	16.80044746398926	17.44347381591797	22.084228515625	17.75736427307129	14.73257064819336	17.44458961486816	18.45276832580566	13.73538398742676	18.70413398742676	17.15363311767578	17.94324684143066	16.0582275390625	18.7624683380127	13.34706115722656	14.3108606338501	21.6720085144043	15.524169921875	17.17467498779297	14.57399940490723	17.09611701965332	22.63743209838867	12.48816680908203	16.87041091918945	17.50091552734375	16.14113235473633	17.16961479187012	21.53545188903809	16.14212036132812	20.48567962646484	15.00143146514893	17.46107292175293	14.15117073059082	16.3216609954834	17.88134574890137	15.82861614227295	16.14105033874512	19.15585136413574	18.18799781799316	14.6722354888916	17.47626686096191	17.88456916809082	16.20035934448242	17.23393821716309	17.79719543457031	18.2083854675293	16.78209114074707	15.99773597717285	15.43778896331787	14.13740730285645	21.45969009399414	14.18115425109863	20.13912105560303
222	237	15.56777095794678	13.58700466156006	15.06110763549805	17.59518432617188	14.90125751495361	14.17977428436279	14.38972759246826	15.11144256591797	12.41218852996826	13.45600414276123	15.65788841247559	12.48040866851807	11.74032497406006	12.5358772277832	17.10360717773438	13.56067180633545	13.32536792755127	20.34499168395996	15.50082397460938	14.1831579208374	14.91504096984863	14.90945911407471	15.1305513381958	9.79749584197998	17.27337265014648	13.15365886688232	15.41920471191406	10.23580074310303	12.37618637084961	18.04561996459961	10.95644569396973	16.09948348999023	17.23403739929199	16.7089729309082	14.24218273162842	16.51091003417969	22.18886947631836	13.35853958129883	15.61850357055664	19.38752174377441	16.85861206054688	15.66759395599365	21.42194938659668	16.87528800964355	19.76418495178223	15.97195720672607	15.84231376647949	14.19407939910889	17.32240295410156	17.67510986328125	17.41901779174805	18.88239669799805	20.8466625213623	17.72896957397461	15.59706974029541	17.83615303039551	17.7117805480957	14.56791400909424	18.60354614257812	17.79806137084961	18.44404602050781	15.77746963500977	17.77566337585449	17.07431983947754	13.39281940460205	18.48587036132812	16.83054161071777	18.68464088439941	15.07104015350342	16.31443023681641	21.81248092651367	11.55981540679932	15.62377834320068	17.76705169677734	15.48423004150391	16.87574005126953	22.01362419128418	15.474778175354	20.19342803955078	16.43961524963379	16.72827529907227	13.08952140808105	18.47562217712402	16.77418327331543	17.59160041809082	16.6530647277832	19.58452224731445	18.67176246643066	15.97834300994873	17.73780250549316	18.2405948638916	16.18112754821777	16.56728935241699	17.05447387695312	18.38524055480957	16.60476303100586	16.39907073974609	18.38606071472168	13.54106521606445	19.85368537902832	16.42156028747559	19.92888355255127
