frame_start	frame_end	highbinding	left_cerebral_white_matter	left_cerebellum_white_matter	left_cerebellum_cortex	left_thalamus	left_caudate	left_putamen	left_pallidum	brain_stem	left_hippocampus	left_amygdala	csf	left_accumbens_area	left_ventraldc	left_choroid_plexus	right_cerebral_white_matter	right_cerebellum_white_matter	right_cerebellum_cortex	right_thalamus	right_caudate	right_putamen	right_pallidum	right_hippocampus	right_amygdala	right_accumbens_area	right_ventraldc	right_choroid_plexus	aircavity	skull	vermis	pons	csf_extracerebral	head_extracerebral	ctx_lh_bankssts	ctx_lh_caudalanteriorcingulate	ctx_lh_caudalmiddlefrontal	ctx_lh_cuneus	ctx_lh_entorhinal	ctx_lh_fusiform	ctx_lh_inferiorparietal	ctx_lh_inferiortemporal	ctx_lh_isthmuscingulate	ctx_lh_lateraloccipital	ctx_lh_lateralorbitofrontal	ctx_lh_lingual	ctx_lh_medialorbitofrontal	ctx_lh_middletemporal	ctx_lh_parahippocampal	ctx_lh_paracentral	ctx_lh_parsopercularis	ctx_lh_parsorbitalis	ctx_lh_parstriangularis	ctx_lh_pericalcarine	ctx_lh_postcentral	ctx_lh_posteriorcingulate	ctx_lh_precentral	ctx_lh_precuneus	ctx_lh_rostralanteriorcingulate	ctx_lh_rostralmiddlefrontal	ctx_lh_superiorfrontal	ctx_lh_superiorparietal	ctx_lh_superiortemporal	ctx_lh_supramarginal	ctx_lh_frontalpole	ctx_lh_temporalpole	ctx_lh_transversetemporal	ctx_lh_insula	ctx_rh_bankssts	ctx_rh_caudalanteriorcingulate	ctx_rh_caudalmiddlefrontal	ctx_rh_cuneus	ctx_rh_entorhinal	ctx_rh_fusiform	ctx_rh_inferiorparietal	ctx_rh_inferiortemporal	ctx_rh_isthmuscingulate	ctx_rh_lateraloccipital	ctx_rh_lateralorbitofrontal	ctx_rh_lingual	ctx_rh_medialorbitofrontal	ctx_rh_middletemporal	ctx_rh_parahippocampal	ctx_rh_paracentral	ctx_rh_parsopercularis	ctx_rh_parsorbitalis	ctx_rh_parstriangularis	ctx_rh_pericalcarine	ctx_rh_postcentral	ctx_rh_posteriorcingulate	ctx_rh_precentral	ctx_rh_precuneus	ctx_rh_rostralanteriorcingulate	ctx_rh_rostralmiddlefrontal	ctx_rh_superiorfrontal	ctx_rh_superiorparietal	ctx_rh_superiortemporal	ctx_rh_supramarginal	ctx_rh_frontalpole	ctx_rh_temporalpole	ctx_rh_transversetemporal	ctx_rh_insula	reference
0	15	0.000689777894877	0.0003075578424613923	0	0	1.039695916915662e-06	7.95056109836878e-08	3.471395757514983e-07	0.000221688489546068	0	0	0	0.0001142674736911431	0	0	0	0.001694980426691473	0	0	7.464056398021057e-05	0.003597552422434092	5.166591421357225e-08	0	0	0	9.451180176256457e-07	7.489562676710193e-07	0	1.535829189519555e-12	0.0002732915745582432	0	2.320263625676944e-08	0.0001427738170605153	5.285991937853396e-05	0	0	0	8.321588751414311e-08	0	0	4.58082638488122e-07	0	0	2.491707506990792e-09	2.13842486118665e-05	0	0.0002129248168785125	0	0	0	8.973599818773437e-08	0	0	0	0.0003615016466937959	4.400229045131709e-06	6.692156517829062e-08	5.113026418257505e-06	0	4.660329011585418e-08	4.450457424809429e-08	1.313171742367558e-05	0	0	1.56373445747704e-07	0	0	0.0002050074253929779	1.837860565956362e-07	0	0	0	0	0	9.679878010260268e-10	0	0	0.0001117966312449425	0.003691373858600855	0	1.592684526485755e-07	1.494976586968733e-08	0	0	5.576453965261408e-09	8.414598369199666e-07	0	0	1.819067030339738e-08	4.344728049554547e-11	0.005057614296674728	8.476058803398231e-14	0	0.0003923095355276018	2.369468787843942e-10	9.072333995163717e-08	1.635434159652505e-06	9.255473401026393e-07	0	0	0	0.002633224241435528	3.611769898e-06
15	30	0.026496129110456	0.007225498091429472	0.003412596648558974	0.008070822805166245	0.03329278901219368	0.04365148022770882	0.004697478376328945	0.07304023951292038	7.683684799530965e-09	0.003743733512237668	7.537560264836429e-08	0.009152841754257679	0	0.008208747953176498	0.006993622053414583	0.009225244633853436	0.0008419135701842606	0.0007452800055034459	0.01517879124730825	0.03883400931954384	0.01839788444340229	0.06412336975336075	0.002050281269475818	0	0.0002798865607473999	6.640925676038023e-08	0.0004637408128473908	0.001354340696707368	0.004062450490891933	0.0004414453869685531	9.818490553925585e-08	0.005146765615791082	0.001399962464347482	3.836546511593042e-06	9.936087508322089e-07	0.004326930269598961	0.00163214304484427	0	6.21300841885386e-08	0.003560067852959037	0.01294440310448408	0.01605664379894733	0.0006183800869621336	0.001089462195523083	1.159252224169904e-05	0.001371380989439785	6.417547410819679e-06	0	0.002906704321503639	0.01002657879143953	8.580167559557594e-06	0.000527426484040916	0.009435741230845451	0.0005127913900651038	0.001628577127121389	0.002566516865044832	0.002305074594914913	0.0004315564874559641	0.0182797759771347	0.004268395248800516	0.004672257695347071	0.007821189239621162	0.03678290173411369	0.002111580688506365	0.01995561830699444	0.009464871138334274	1.166999300039606e-05	0.0002046775771304965	0.001849660184234381	0.001802830258384347	0.006070035975426435	0.04883626103401184	0.0002097912220051512	0.0149000957608223	0	2.664369844751491e-07	0.01938506029546261	0.01398748066276312	0.01134497113525867	1.349671310890699e-05	0.01674260944128036	9.793657227419317e-06	0.001609858358278871	0.0008440924575552344	2.534817440391635e-06	0.03389869630336761	0.001108880387619138	0.009248835034668446	0.001544606871902943	0.006480257958173752	0.001553295645862818	0.001847975887358189	0.002845828421413898	0.003605040488764644	0.008462628349661827	0.007316212169826031	0.01097163837403059	1.01895886928105e-06	2.279287336648395e-08	0.0007638360839337111	0.0002971625362988561	0.004083715233719
30	45	0.10486850887537	0.110871210694313	0.04085241630673409	0.06254912912845612	0.05106877163052559	0.04435171186923981	0.1438555866479874	0.02862558141350746	0.1370371878147125	0.08150144666433334	0.05790554359555244	0.1580778360366821	0.08238804340362549	0.2407071441411972	0.04586344212293625	0.1053191944956779	0.05780093744397163	0.05782080441713333	0.09469323605298996	0.1925924569368362	0.07223288714885712	0.03834263607859612	0.1194618493318558	0.05167321115732193	0.04408606141805649	0.09201645851135254	0.01803283579647541	0.04867322370409966	0.05302361026406288	0.02322820015251637	0.08676228672266006	0.08771982043981552	0.02872551418840885	0.04856887087225914	0.2699615955352783	0.08680976182222366	0.1546227484941483	0.04253164306282997	0.06938620656728745	0.12675940990448	0.06485240906476974	0.06963207572698593	0.06271073222160339	0.1461587846279144	0.1080030500888824	0.101487934589386	0.09075826406478882	0.06595783680677414	0.05358016863465309	0.1122120469808578	0.1359706223011017	0.0931871086359024	0.1401197761297226	0.1146423146128654	0.05012678727507591	0.07427520304918289	0.1110070273280144	0.1240336447954178	0.08000229299068451	0.1111990362405777	0.07649249583482742	0.09411229193210602	0.0609823539853096	0.08850091695785522	0.04013593122363091	0.1974271237850189	0.07718975841999054	0.2069774270057678	0.1101093664765358	0.1074272766709328	0.08814655244350433	0.03873169422149658	0.08477378636598587	0.08479994535446167	0.0773206427693367	0.06209690868854523	0.06620550155639648	0.2090549319982529	0.114644818007946	0.08132047951221466	0.08949582278728485	0.02981527894735336	0.1129048615694046	0.07332167029380798	0.02402357757091522	0.1074464842677116	0.09581717103719711	0.09289759397506714	0.2194237411022186	0.1520808488130569	0.0754559338092804	0.07927342504262924	0.06918126344680786	0.1002037897706032	0.08060248196125031	0.09498238563537598	0.06458795070648193	0.09438152611255646	0.02088004909455776	0.1626895517110825	0.1374751627445221	0.061382291838527
45	60	0.705084145069122	0.632111132144928	0.4770851731300354	0.7210246920585632	0.653005063533783	0.3637994527816772	0.6879343390464783	0.3247090876102448	0.9326793551445007	1.009392142295837	0.9448732733726501	0.6624502539634705	0.4510494768619537	0.4044778943061829	0.6341826319694519	0.6925694346427917	0.6476008296012878	0.9618788361549377	0.7836501002311707	0.7887906432151794	0.7904009222984314	0.8313226699829102	0.8042439818382263	1.028885006904602	0.3302572667598724	0.7741007804870605	0.63685142993927	0.361844003200531	0.4177255630493164	1.04203474521637	0.8655035495758057	1.210867524147034	0.4303069710731506	0.8955036401748657	1.219027638435364	0.5502028465270996	0.9842967391014099	1.066732168197632	0.6978963613510132	0.8190999627113342	0.8774910569190979	0.8413116931915283	0.8504868745803833	0.8433908820152283	1.012412548065186	0.9784808158874512	0.7103315591812134	0.7779780030250549	0.7962625622749329	1.073740005493164	1.238411664962769	0.6480076909065247	1.029955148696899	1.13852322101593	0.785524308681488	0.771571159362793	0.7334395051002502	0.7517113089561462	0.7269613146781921	0.8070590496063232	0.7124472856521606	0.8498780727386475	0.9297903776168823	0.3392325341701508	0.8774927854537964	1.015071511268616	1.494788289070129	0.8200788497924805	1.0424485206604	0.7164076566696167	1.133255481719971	0.487328052520752	0.7384714484214783	0.846677303314209	0.7424893379211426	1.087843418121338	0.8596687912940979	1.163891553878784	1.032898187637329	1.178258061408997	0.8836997151374817	0.8087942004203796	0.9328368902206421	1.078419089317322	0.7966592311859131	1.219220161437988	0.726778507232666	0.8934928774833679	1.239252805709839	0.7890406250953674	1.022781848907471	1.264048099517822	0.7387343049049377	0.9071736931800842	0.9510793089866638	0.9548956751823425	0.9521059393882751	1.546302795410156	0.4889571368694305	1.66824209690094	1.063753247261047	0.8174868822097781
60	75	2.735799312591553	2.199434280395508	1.833555459976196	3.337185859680176	2.876546382904053	2.001254558563232	2.281940937042236	2.567437887191772	2.682826519012451	3.855242252349854	2.770493268966675	2.44450044631958	2.1206955909729	3.009791135787964	4.751476287841797	2.17621111869812	2.469023704528809	3.909472227096558	3.018993377685547	2.666075229644775	2.867684841156006	2.163694858551025	2.88698148727417	2.340472221374512	4.923978328704834	2.799479961395264	3.925737380981445	1.506515741348267	1.646581530570984	3.4087975025177	2.285482168197632	4.615022659301758	1.724846839904785	2.856458425521851	2.654730319976807	2.217999458312988	3.142628192901611	1.880528807640076	2.533256769180298	3.305248498916626	2.647077560424805	3.351329803466797	3.346648693084717	2.908484697341919	3.55172872543335	3.306909084320068	2.726724147796631	3.386759042739868	3.329528570175171	2.862335443496704	2.722832202911377	3.254057645797729	3.000742197036743	3.204302787780762	3.158539056777954	3.051976203918457	2.871472120285034	3.299391031265259	2.825504541397095	2.768945455551147	2.762303113937378	3.615862846374512	3.050758123397827	4.168324947357178	2.212717771530151	4.496337890625	3.107861280441284	2.991243124008179	2.54015040397644	2.608144283294678	4.424227714538574	3.15385627746582	2.658061027526855	3.063368082046509	2.612473964691162	3.091580152511597	3.184914112091064	2.949368000030518	3.629369020462036	2.809172391891479	2.898557901382446	2.584798097610474	3.137945175170898	3.336219310760498	2.583261489868164	2.585159540176392	3.842838048934937	3.031814098358154	3.133263826370239	3.128233432769775	3.362219572067261	3.317514419555664	2.887031078338623	3.074660778045654	3.178868293762207	3.195134878158569	3.161929130554199	2.611856698989868	2.296555519104004	4.594977855682373	3.417065858840942	3.604319214820862
75	90	4.562344074249268	3.981703519821167	4.148606300354004	5.985335350036621	5.156166076660156	3.466993093490601	4.495489597320557	3.048781633377075	4.844350337982178	7.00776195526123	5.64180326461792	4.597932815551758	4.598892211914062	4.834949493408203	5.50629997253418	4.004392147064209	4.070144653320312	7.035688400268555	4.841204166412354	4.181613445281982	4.680859088897705	3.78183913230896	6.411416530609131	4.985923290252686	4.127204418182373	4.819909572601318	5.669408321380615	2.813814878463745	3.222310543060303	8.40282154083252	5.227740287780762	8.207219123840332	3.506748676300049	5.107424259185791	5.725119590759277	5.247633457183838	6.457768440246582	4.186917781829834	4.930289745330811	5.236087322235107	5.300272941589355	6.969993591308594	5.732366561889648	5.010680198669434	6.594697952270508	5.51613187789917	5.347100734710693	4.205074787139893	5.504697322845459	5.127414226531982	5.867775917053223	5.604866981506348	5.770140647888184	5.877188205718994	5.836669445037842	5.955544948577881	5.067356109619141	6.57223653793335	5.237311840057373	5.125424861907959	5.323605537414551	5.840481758117676	5.458252429962158	4.175034046173096	4.218665599822998	7.565731048583984	6.625906467437744	4.97774076461792	5.263686656951904	4.992875576019287	8.167116165161133	4.735412120819092	4.411028861999512	5.699043750762939	5.130517959594727	6.439277172088623	5.339923858642578	5.025155067443848	6.975964546203613	5.624291896820068	5.21870231628418	4.859151363372803	6.532107830047607	4.563553810119629	6.607552528381348	5.685065269470215	6.153927803039551	5.432324886322021	5.518075942993164	5.63802433013916	6.367464542388916	4.140706062316895	5.31186580657959	5.345581531524658	5.222993850708008	5.664126396179199	6.155570983886719	4.592679977416992	4.757642269134521	7.394516468048096	6.054160118103027	6.465006828308105
90	105	7.245270252227783	6.11165189743042	6.917454242706299	9.489662170410156	7.433362007141113	6.103479862213135	6.852053642272949	6.223896026611328	6.856412410736084	10.41985893249512	7.92513370513916	7.065279483795166	6.132631778717041	7.535232543945312	9.016194343566895	6.234267234802246	6.485160827636719	10.82191181182861	7.897258281707764	6.759148120880127	7.15869665145874	6.768514633178711	9.977818489074707	7.197887420654297	8.906162261962891	8.426053047180176	12.0146017074585	4.305034637451172	5.057559013366699	10.89515590667725	6.829961776733398	12.05338573455811	5.601613521575928	8.273810386657715	7.280139446258545	7.875970840454102	11.69596004486084	7.589955806732178	7.22287130355835	8.807014465332031	7.921171188354492	7.928071975708008	9.44575309753418	6.939592361450195	10.7711067199707	8.816593170166016	7.62801456451416	6.600190162658691	9.955450057983398	8.276772499084473	8.42039680480957	8.804843902587891	10.54897975921631	8.801850318908691	8.328238487243652	8.255670547485352	8.283930778503418	7.00198221206665	7.706102848052979	7.650065422058105	8.946325302124023	8.830772399902344	8.628559112548828	6.196045875549316	5.599260807037354	10.73608493804932	8.998517036437988	8.430780410766602	8.147969245910645	7.823689937591553	14.29984474182129	6.917648792266846	8.223661422729492	9.220255851745605	7.748402118682861	11.3967170715332	9.062053680419922	8.01762866973877	11.07383823394775	9.03822135925293	7.884865760803223	7.324594020843506	9.446966171264648	8.952192306518555	6.555726051330566	8.912755012512207	9.867631912231445	8.872393608093262	7.466037273406982	8.759995460510254	9.032431602478027	9.480940818786621	8.166645050048828	7.608212947845459	8.907557487487793	9.114080429077148	8.40532112121582	8.613186836242676	7.339590072631836	9.93012523651123	9.240067481994629	10.10639524459839
105	120	9.699741363525391	8.403020858764648	8.536142349243164	13.41091060638428	10.44567775726318	8.251828193664551	9.061919212341309	8.192890167236328	10.0863037109375	14.51513767242432	10.76284599304199	9.50404167175293	7.959775447845459	10.28831195831299	13.96400451660156	8.578859329223633	9.006988525390625	14.67609119415283	10.85688877105713	8.488077163696289	9.202628135681152	6.063890933990479	10.64556884765625	9.56053638458252	6.949178218841553	9.68834114074707	15.82924747467041	5.865334510803223	7.098341941833496	15.67113208770752	9.106307983398438	16.05509185791016	8.109489440917969	10.21081066131592	9.969624519348145	9.863241195678711	15.23700428009033	9.031670570373535	9.946928977966309	12.05785083770752	10.48308849334717	14.13757228851318	12.30256175994873	10.434006690979	14.88934803009033	11.51791191101074	10.71730995178223	10.43057060241699	11.53217220306396	11.50039577484131	12.63511753082275	12.24880504608154	14.47030544281006	12.0286750793457	11.4621410369873	11.71958637237549	11.65553855895996	10.04106426239014	11.24638366699219	10.73100185394287	11.51089859008789	11.66841602325439	12.53689479827881	10.14865398406982	6.639708518981934	12.76045036315918	12.43661689758301	10.76224136352539	11.40411853790283	10.47006511688232	17.79874610900879	7.471625328063965	10.89906024932861	11.42062282562256	10.41580200195312	12.07829093933105	12.43862342834473	10.59637260437012	14.62220859527588	11.83548927307129	10.79016876220703	10.8187427520752	13.13662052154541	12.51146411895752	10.27946949005127	11.87079429626465	13.14725685119629	11.84871387481689	11.35494136810303	11.13551425933838	12.58804798126221	10.62053775787354	10.81571197509766	10.62904357910156	12.27137279510498	12.07021045684814	11.707763671875	9.312734603881836	6.978760242462158	17.41977310180664	12.41108703613281	14.13318252563477
120	135	11.2646951675415	9.83430004119873	10.52859878540039	15.75273990631104	11.96244335174561	8.948236465454102	11.86182975769043	8.72117805480957	11.32878684997559	13.46118450164795	12.95159912109375	10.10134029388428	9.165308952331543	11.70765686035156	16.69270133972168	10.06475257873535	10.67153644561768	17.5932445526123	11.64631080627441	9.479520797729492	11.48036670684814	10.36144924163818	12.970046043396	11.35833835601807	10.18368244171143	11.26389598846436	18.47998428344727	7.213234901428223	8.482073783874512	13.47092437744141	8.958243370056152	17.97426223754883	10.15849781036377	12.71432971954346	12.16415119171143	12.32517623901367	17.90992736816406	10.16713333129883	12.01483249664307	13.95940017700195	12.69284343719482	15.10723304748535	15.38578128814697	10.43420600891113	15.99426555633545	13.79451560974121	12.80788040161133	11.14214420318604	15.32058811187744	13.61285495758057	15.16623973846436	14.83780574798584	15.60843181610107	15.1166410446167	14.25292110443115	13.69038391113281	14.0443229675293	13.53194904327393	12.34991455078125	11.93701839447021	14.17091274261475	13.7671422958374	14.85320281982422	13.10105133056641	7.763286113739014	17.88650321960449	12.97367477416992	10.84157562255859	12.9825496673584	12.67819595336914	20.68608283996582	10.85427093505859	12.76957988739014	14.14188003540039	12.12551307678223	16.61258316040039	14.69053173065186	11.96806621551514	17.23040580749512	12.17525959014893	12.04462909698486	13.05530643463135	14.84082794189453	13.35529041290283	14.13513660430908	12.63078689575195	17.25742530822754	13.36902904510498	13.14781951904297	13.17212867736816	14.95499515533447	14.33671569824219	12.51000785827637	12.38254928588867	13.97205543518066	14.19346046447754	13.23255634307861	14.90876865386963	8.650129318237305	16.6688060760498	13.73841762542725	16.98427867889404
135	150	12.91457843780518	11.38032150268555	12.78858852386475	17.60671615600586	14.29848384857178	10.53189373016357	11.95286846160889	10.02834987640381	11.57644844055176	14.64668369293213	13.47850894927979	12.83809852600098	13.70657348632812	12.46099662780762	19.0071907043457	11.46006393432617	11.95070552825928	19.23472213745117	14.62390613555908	10.62926292419434	13.64499187469482	11.21739768981934	14.1196117401123	12.28024101257324	9.63331127166748	11.87195587158203	22.94715118408203	8.000335693359375	9.946328163146973	18.61281585693359	12.17197227478027	19.53484344482422	11.69360160827637	12.72275638580322	14.26687622070312	13.81093883514404	21.35138130187988	10.70425891876221	13.69520378112793	15.07294178009033	14.57499313354492	17.65891075134277	18.63904190063477	13.91357612609863	19.54610061645508	15.50280857086182	14.25744533538818	12.50647640228271	15.19758701324463	15.30338191986084	15.56332683563232	14.89653396606445	20.3757152557373	15.62136936187744	14.80326366424561	16.63552856445312	15.84593391418457	14.22747039794922	13.64849281311035	14.24923229217529	15.67764377593994	15.3615550994873	16.57240867614746	17.57428169250488	8.794441223144531	18.83405303955078	14.96981334686279	14.87016582489014	13.85167789459229	14.00712490081787	23.65710639953613	10.59285163879395	15.30225086212158	16.43105506896973	14.73499488830566	17.31054496765137	17.04459381103516	13.15607452392578	20.13957214355469	13.46282005310059	14.89632034301758	15.14734268188477	16.27218627929688	14.28759002685547	14.86117076873779	14.99565410614014	19.5321216583252	15.86461353302002	15.75790119171143	14.95623207092285	17.13230323791504	12.08760547637939	14.77971267700195	14.20054340362549	16.64325332641602	15.19916915893555	15.69431686401367	14.40140056610107	8.95839786529541	20.86798095703125	14.78598976135254	18.74734592437744
150	165	14.59879112243652	11.91890525817871	12.15275955200195	17.73242378234863	15.43118762969971	11.77416324615479	15.31943416595459	12.66283130645752	12.85966777801514	15.1136589050293	11.70467853546143	12.00265216827393	9.957294464111328	12.30098915100098	17.5804271697998	12.32564067840576	13.43946933746338	19.8925724029541	15.87607002258301	10.70219707489014	14.32280445098877	10.40960788726807	13.31755542755127	12.62239170074463	12.09957027435303	12.28361988067627	16.41963577270508	8.672197341918945	10.75904560089111	17.65106201171875	11.88080787658691	18.91320419311523	12.79976177215576	14.45136260986328	13.15310382843018	16.10659027099609	21.65857124328613	10.86850547790527	13.72519016265869	17.45170021057129	15.39352321624756	18.59653282165527	18.47189712524414	14.53623104095459	19.20998191833496	16.3023853302002	14.19403076171875	13.17752838134766	16.03103065490723	15.385573387146	16.53589630126953	14.98174476623535	19.7476978302002	16.63334274291992	15.69906330108643	16.96582794189453	16.65099906921387	14.44847965240479	16.35713958740234	15.18357563018799	16.96586799621582	15.93236827850342	18.21653938293457	16.52273559570312	10.71051692962646	17.10480499267578	15.28912162780762	15.35263538360596	14.64853668212891	14.75469207763672	23.62355041503906	12.68345260620117	15.7517728805542	17.33721542358398	14.54916667938232	18.2149658203125	18.42302703857422	14.12356185913086	19.52895927429199	14.76581573486328	14.10636138916016	14.57527542114258	15.80497264862061	15.10545349121094	15.52762699127197	15.54614734649658	21.7869758605957	16.25871276855469	13.72560882568359	16.13763236999512	18.12995147705078	13.92468357086182	15.6653413772583	14.70886898040771	16.7549934387207	15.17271709442139	15.62849235534668	16.21566581726074	10.03365421295166	20.25518608093262	15.15106105804443	19.38758182525635
165	180	14.14159202575684	12.48232936859131	14.34580230712891	18.79297256469727	14.81027793884277	11.45141220092773	14.24904537200928	12.75210666656494	13.56512546539307	14.81863498687744	12.22657585144043	12.27511119842529	9.289294242858887	15.46823596954346	18.29433822631836	12.6407585144043	13.59067821502686	20.88138961791992	14.45663452148438	12.1454963684082	13.94762706756592	10.17075443267822	14.72703742980957	11.89528465270996	14.62275791168213	12.71200656890869	21.7736988067627	8.79723072052002	10.98914051055908	19.71798896789551	13.12095355987549	18.5771484375	13.3524227142334	16.63204002380371	14.537034034729	16.57413864135742	21.30568885803223	13.95355415344238	13.50785160064697	16.57807159423828	14.61492538452148	18.26688003540039	19.21944618225098	15.23868179321289	20.02031707763672	14.9074239730835	15.15157890319824	13.17042350769043	16.67033958435059	14.75648307800293	18.33928489685059	15.41834545135498	21.21675491333008	17.15820693969727	15.06608486175537	17.24701690673828	17.47320556640625	14.80932712554932	16.16921615600586	15.96746444702148	17.15080833435059	16.67240142822266	18.57477188110352	17.44153213500977	10.01970100402832	17.7801628112793	14.88942813873291	16.32413673400879	16.42440032958984	15.58748149871826	24.95005989074707	11.9804105758667	15.3204984664917	17.45923233032227	14.54150581359863	17.31560897827148	19.85292816162109	13.88913536071777	20.91596031188965	14.55937099456787	15.588210105896	13.99733829498291	18.28961944580078	17.01265144348145	16.6412410736084	15.45527172088623	19.53311157226562	16.97713088989258	15.25150394439697	17.50839424133301	17.73148155212402	11.78401565551758	16.67655563354492	15.62293720245361	17.09576034545898	16.68288993835449	16.59906578063965	16.70389747619629	10.34067630767822	16.97856140136719	14.80352783203125	20.58951759338379
180	195	15.01789855957031	13.10737705230713	14.62630558013916	19.26391983032227	15.27838134765625	12.18342304229736	15.13943576812744	16.06210899353027	11.80716800689697	15.4215030670166	12.09374618530273	12.25350856781006	10.46171760559082	15.31126976013184	22.21267700195312	13.31599712371826	14.40631771087646	20.17533302307129	15.37692260742188	13.39798545837402	14.6864709854126	15.09601020812988	15.85148525238037	11.4451379776001	15.11950778961182	13.56040668487549	18.96501350402832	9.02498722076416	11.26748561859131	22.03024482727051	12.54782581329346	18.74450874328613	13.87369918823242	16.58691215515137	17.22070503234863	16.85059928894043	22.18959426879883	12.6112174987793	14.3734016418457	18.45516777038574	15.8520565032959	17.96808242797852	18.91967391967773	15.05389499664307	20.54409217834473	16.14949417114258	15.95626544952393	10.89930152893066	15.46599864959717	17.0266056060791	17.48035430908203	19.22911071777344	23.57729339599609	18.48022079467773	16.41430282592773	17.68664741516113	17.98613739013672	15.21199035644531	17.67879104614258	15.88744926452637	17.95844268798828	16.29957580566406	17.95440673828125	16.52010345458984	11.22307777404785	22.85721206665039	15.4254322052002	15.63329887390137	17.64374351501465	16.74116134643555	24.40394973754883	12.54712390899658	16.40514373779297	18.50566864013672	15.95743179321289	15.78962421417236	20.70158004760742	15.14478969573975	20.86330986022949	14.03426837921143	14.89363861083984	12.08456325531006	17.21899604797363	16.75017356872559	18.48151016235352	18.66456985473633	21.66304016113281	18.48681831359863	18.26831436157227	17.09078979492188	18.86521339416504	15.09039878845215	17.50139236450195	16.09082984924316	18.24554824829102	15.67905044555664	17.74782752990723	17.05703735351562	12.34801483154297	20.97793769836426	14.13407421112061	20.44692039489746
195	210	15.39706802368164	13.52478504180908	13.76932716369629	19.84309196472168	15.90300273895264	12.12334156036377	15.54973602294922	15.14283561706543	13.11165332794189	14.79124069213867	11.93538951873779	12.02550315856934	12.26718711853027	13.08541297912598	19.03875923156738	13.65166473388672	13.91072463989258	20.98479652404785	16.41975975036621	12.13296890258789	15.77761554718018	14.76524448394775	15.99475288391113	10.88033580780029	14.03758811950684	13.80605220794678	20.89915084838867	8.954798698425293	11.47658443450928	20.54996490478516	13.33193874359131	18.50493240356445	14.1446418762207	18.1987361907959	15.9306001663208	16.26279640197754	22.9911003112793	12.56036567687988	15.67911243438721	18.34273147583008	16.09572601318359	15.75772190093994	20.0048713684082	14.75130462646484	21.39392852783203	17.2248592376709	16.83117485046387	11.88293743133545	17.23578071594238	17.93602561950684	20.42680168151855	18.07649612426758	22.08243370056152	18.98528861999512	16.91678810119629	18.60874176025391	18.11128044128418	15.21632862091064	17.13256645202637	16.00850486755371	18.55693626403809	16.24368667602539	18.45704078674316	14.87259674072266	9.472187995910645	20.16351509094238	16.03654479980469	16.94869422912598	16.31962776184082	17.34473419189453	23.44876480102539	11.01323318481445	15.56176471710205	18.63788795471191	17.14087295532227	18.38344192504883	20.25816917419434	14.9114818572998	20.27547836303711	16.23783683776855	16.60232543945312	14.34784126281738	19.4017448425293	15.97831726074219	19.54516410827637	18.35364532470703	25.74042892456055	18.26363945007324	16.4544620513916	18.51836013793945	19.02821159362793	15.85836505889893	17.41614532470703	17.23369026184082	18.3254337310791	15.97805500030518	17.5963020324707	12.55191898345947	13.02385520935059	20.23223686218262	14.99158573150635	21.38823699951172
210	225	16.35892677307129	14.00198078155518	15.74751949310303	20.07478523254395	16.54368019104004	13.97496032714844	17.22931480407715	13.4299898147583	13.41084289550781	14.61200618743896	11.46043968200684	11.48803520202637	14.37142753601074	14.5771312713623	16.54592132568359	14.35325717926025	15.00400924682617	20.99381637573242	15.47691059112549	13.22568035125732	14.60530471801758	12.73151779174805	14.98042678833008	11.44866371154785	12.6811408996582	11.56248760223389	16.49539375305176	9.31612491607666	11.78486919403076	22.19265365600586	12.99528789520264	18.22740364074707	14.36218166351318	19.0202465057373	15.8642635345459	17.36525917053223	23.32207298278809	13.92831325531006	15.81203365325928	18.5304012298584	16.55975532531738	17.06997489929199	21.00636672973633	16.35143280029297	20.88945770263672	16.39546394348145	16.3901481628418	15.18103218078613	18.02414321899414	18.51467895507812	17.60954475402832	17.16046333312988	24.92420387268066	19.43717765808105	16.17349243164062	18.68560981750488	18.27831649780273	15.86335945129395	17.92765235900879	16.5020694732666	18.23661804199219	17.51753616333008	19.70443725585938	17.79187202453613	10.75131416320801	19.03950691223145	15.26562786102295	15.86217308044434	18.10224342346191	16.40557098388672	26.67389488220215	12.13523769378662	16.00199890136719	18.8044605255127	15.86670398712158	18.62413787841797	21.23198318481445	14.90278434753418	20.20190238952637	15.18362331390381	16.89337921142578	12.99728012084961	17.57892417907715	19.33014297485352	18.03183555603027	17.2396354675293	21.48472213745117	18.85306358337402	17.53238677978516	18.42853546142578	18.87492561340332	13.41130352020264	18.27284812927246	17.33908081054688	19.38001251220703	17.69687652587891	17.8517951965332	16.26522636413574	11.97021865844727	22.83298683166504	15.37833499908447	21.46669292449951
