frame_start	frame_end	highbinding	left_cerebral_white_matter	left_cerebellum_white_matter	left_cerebellum_cortex	left_thalamus	left_caudate	left_putamen	left_pallidum	brain_stem	left_hippocampus	left_amygdala	csf	left_accumbens_area	left_ventraldc	left_choroid_plexus	right_cerebral_white_matter	right_cerebellum_white_matter	right_cerebellum_cortex	right_thalamus	right_caudate	right_putamen	right_pallidum	right_hippocampus	right_amygdala	right_accumbens_area	right_ventraldc	right_choroid_plexus	aircavity	skull	vermis	pons	csf_extracerebral	head_extracerebral	ctx_lh_bankssts	ctx_lh_caudalanteriorcingulate	ctx_lh_caudalmiddlefrontal	ctx_lh_cuneus	ctx_lh_entorhinal	ctx_lh_fusiform	ctx_lh_inferiorparietal	ctx_lh_inferiortemporal	ctx_lh_isthmuscingulate	ctx_lh_lateraloccipital	ctx_lh_lateralorbitofrontal	ctx_lh_lingual	ctx_lh_medialorbitofrontal	ctx_lh_middletemporal	ctx_lh_parahippocampal	ctx_lh_paracentral	ctx_lh_parsopercularis	ctx_lh_parsorbitalis	ctx_lh_parstriangularis	ctx_lh_pericalcarine	ctx_lh_postcentral	ctx_lh_posteriorcingulate	ctx_lh_precentral	ctx_lh_precuneus	ctx_lh_rostralanteriorcingulate	ctx_lh_rostralmiddlefrontal	ctx_lh_superiorfrontal	ctx_lh_superiorparietal	ctx_lh_superiortemporal	ctx_lh_supramarginal	ctx_lh_frontalpole	ctx_lh_temporalpole	ctx_lh_transversetemporal	ctx_lh_insula	ctx_rh_bankssts	ctx_rh_caudalanteriorcingulate	ctx_rh_caudalmiddlefrontal	ctx_rh_cuneus	ctx_rh_entorhinal	ctx_rh_fusiform	ctx_rh_inferiorparietal	ctx_rh_inferiortemporal	ctx_rh_isthmuscingulate	ctx_rh_lateraloccipital	ctx_rh_lateralorbitofrontal	ctx_rh_lingual	ctx_rh_medialorbitofrontal	ctx_rh_middletemporal	ctx_rh_parahippocampal	ctx_rh_paracentral	ctx_rh_parsopercularis	ctx_rh_parsorbitalis	ctx_rh_parstriangularis	ctx_rh_pericalcarine	ctx_rh_postcentral	ctx_rh_posteriorcingulate	ctx_rh_precentral	ctx_rh_precuneus	ctx_rh_rostralanteriorcingulate	ctx_rh_rostralmiddlefrontal	ctx_rh_superiorfrontal	ctx_rh_superiorparietal	ctx_rh_superiortemporal	ctx_rh_supramarginal	ctx_rh_frontalpole	ctx_rh_temporalpole	ctx_rh_transversetemporal	ctx_rh_insula	reference
0	15	0.027360212057829	0.01730009354650974	0.004269860219210386	0.009993433021008968	0.01677508465945721	0.01696637831628323	0.01501823123544455	0.009543377906084061	0.00904798973351717	0.003886009799316525	0.002652448834851384	0.02250143699347973	0.01034258212894201	0.08148820698261261	0.0003960056346841156	0.02202434465289116	0.0301225557923317	0.004804067779332399	0.006316417828202248	0.02978088892996311	0.06892290711402893	0.01544701494276524	0.001848545391112566	0.03675636649131775	0.0009856377728283405	0.02926181629300117	0.0002122722653439268	0.008447843603789806	0.009990843012928963	0.01003440469503403	0.005502983462065458	0.01711175218224525	0.004687176551669836	0.0433066338300705	0.01205808483064175	0.01677606254816055	0.0003682889800984412	0.001210162416100502	0.07821201533079147	0.03435837477445602	0.02912291325628757	0.09824860841035843	0.01017718017101288	0.00127494300249964	0.01850134320557117	0.004573005717247725	0.005336933769285679	0.0134010948240757	0.00618655513972044	0.002262616762891412	0.02196910232305527	0.0400039367377758	0.008165678009390831	0.005321502219885588	0.002239922760054469	0.009747239761054516	0.003530894871801138	0.003261943347752094	0.01264677941799164	0.01665746420621872	0.03297271206974983	0.00198747287504375	0.03086395561695099	0.003397059626877308	0.02911534160375595	5.34850187250413e-07	0.02862203307449818	0.02447507157921791	0.02992518059909344	0.02541903778910637	0.03728140518069267	0.01049073506146669	0.03197690099477768	0.02622441574931145	0.005723190493881702	0.10403773188591	0.02482997812330723	0.01469153817743063	0.03781081363558769	0.01329972967505455	0.004032154101878405	0.01123855728656054	0.001958740176633	0.02295080572366714	0.03107038885354996	0.004603743087500334	0.01895306631922722	0.0152138490229845	0.007574375253170729	0.01279021054506302	0.03579704836010933	0.03302701562643051	0.02485361695289612	0.008334187790751457	0.005092242732644081	0.02064023725688457	0.02970794215798378	0.0614345371723175	0.01566067896783352	0	0.03337948769330978	0.003715581377037
15	30	0.131804198026657	0.1180055141448975	0.06118381768465042	0.08778225630521774	0.1020862907171249	0.1152638122439384	0.1136653274297714	0.1892576366662979	0.09404551982879639	0.1602257788181305	0.07619336247444153	0.1090604141354561	0.1532140225172043	0.03916913270950317	0.01656937040388584	0.1127068176865578	0.09744082391262054	0.09015005081892014	0.1566049605607986	0.06012987345457077	0.2211472541093826	0.1843356341123581	0.1391103863716125	0.2417347431182861	0.07617417722940445	0.2309492826461792	0.08632306754589081	0.08218473941087723	0.08491363376379013	0.09537334740161896	0.06557139754295349	0.1148029640316963	0.05834710597991943	0.109100379049778	0.1083265542984009	0.1175525188446045	0.05219892784953117	0.4449311196804047	0.1284162253141403	0.06647766381502151	0.1854654103517532	0.1297094225883484	0.09692733734846115	0.1069612354040146	0.1087943017482758	0.1082477197051048	0.09206949174404144	0.03191318735480309	0.1018166244029999	0.0945795476436615	0.2183073759078979	0.1310823708772659	0.1604131013154984	0.1117318570613861	0.1195776388049126	0.1944996118545532	0.1482838839292526	0.09931661188602448	0.112841010093689	0.112504854798317	0.09541358798742294	0.1439058631658554	0.135616272687912	0.345936506986618	0.1572088450193405	0.08454983681440353	0.1465485394001007	0.1031973510980606	0.2069519311189651	0.1654862612485886	0.07717335969209671	0.1593330800533295	0.08851981908082962	0.113473653793335	0.06604564934968948	0.1652497351169586	0.07602762430906296	0.1791018694639206	0.1124476864933968	0.1715368777513504	0.09901291877031326	0.1589822322130203	0.086225226521492	0.1438392102718353	0.2073342800140381	0.107909694314003	0.01758680120110512	0.1614717543125153	0.1562201231718063	0.1264755129814148	0.1011826395988464	0.1150100007653236	0.1422623693943024	0.1558732092380524	0.08463293313980103	0.1271200180053711	0.1196540147066116	0.05972744524478912	0.2631081640720367	0.2986794412136078	0.1171369925141335	0.083303034305573
30	45	1.375429630279541	1.099134802818298	0.9928656816482544	1.80153477191925	1.288999915122986	1.136626720428467	1.294153928756714	1.329465866088867	1.787067413330078	1.954011082649231	0.8505416512489319	1.17651903629303	1.688019752502441	1.771745681762695	1.091739535331726	1.148252010345459	1.06860363483429	2.075750350952148	1.626136422157288	0.9856773614883423	1.443532109260559	1.560804486274719	2.0697922706604	2.323595762252808	1.241341233253479	1.270062446594238	1.487309813499451	0.9866962432861328	0.9153911471366882	2.058738470077515	1.565117597579956	1.917420148849487	0.9784380197525024	1.48718786239624	1.68375551700592	1.419094324111938	1.685242652893066	1.379005193710327	1.415754079818726	1.686244249343872	1.606512784957886	1.583906054496765	1.715791344642639	2.075646877288818	1.88750684261322	1.478736639022827	1.662436604499817	1.663940072059631	2.020338296890259	2.033933162689209	1.098836660385132	1.381838202476501	1.610085010528564	1.424241065979004	1.573294997215271	1.597359418869019	1.654827356338501	1.861918926239014	1.486213803291321	1.637233138084412	1.240801453590393	1.913417220115662	1.694257020950317	1.560903191566467	1.154357552528381	2.618339061737061	2.33899974822998	1.738524436950684	1.949814081192017	1.470823407173157	2.067358016967773	1.191598296165466	1.619623780250549	1.472574353218079	1.263539910316467	2.224195957183838	1.676112055778503	1.731975197792053	2.421455144882202	1.582814574241638	1.384801745414734	1.581999063491821	1.46433687210083	1.436036705970764	1.198761701583862	2.07379412651062	2.239758253097534	1.662276268005371	1.060538053512573	1.648239135742188	1.40482771396637	2.023437976837158	1.484850168228149	1.555905699729919	1.328014612197876	1.976251840591431	1.661489009857178	1.884790658950806	1.103882551193237	2.073654174804688	1.421784281730652	1.997312784194946
45	60	3.18614673614502	2.66407036781311	3.409001588821411	5.92612361907959	3.243284702301025	2.424456119537354	3.06678318977356	2.643781900405884	3.461973667144775	5.086116313934326	4.157763957977295	2.914704322814941	5.002340793609619	3.477202653884888	3.706782341003418	2.787027597427368	3.047932147979736	5.539999008178711	3.441699028015137	2.805371761322021	3.243097305297852	3.242958307266235	3.538290739059448	2.790706157684326	3.549442529678345	3.538337230682373	3.384719371795654	2.843289852142334	2.848473787307739	4.8229660987854	3.2705237865448	5.184250831604004	2.956539869308472	4.052447319030762	4.02960729598999	3.315929651260376	4.950928211212158	4.333677291870117	3.447409868240356	3.759545803070068	3.759746789932251	3.156926393508911	5.597250461578369	4.041544437408447	5.087320327758789	3.627414703369141	3.550856828689575	3.368250131607056	3.673286437988281	4.246050357818604	2.68727970123291	3.931973934173584	3.736078262329102	3.718596458435059	3.393821477890015	3.673952102661133	3.860394239425659	4.085009098052979	3.459108591079712	3.73414945602417	3.281949281692505	4.027712345123291	4.315471172332764	3.09319543838501	3.148794651031494	4.923370838165283	4.594905376434326	3.374353885650635	3.772893667221069	3.597201108932495	5.686409950256348	2.685385227203369	3.774789333343506	3.704302549362183	3.079252004623413	4.358544826507568	4.762172222137451	3.596401691436768	6.220017910003662	3.609260082244873	3.527391910552979	3.921344518661499	3.157258272171021	3.697235822677612	3.857518434524536	4.625219345092773	5.445975780487061	4.010093688964844	3.520894527435303	3.716197967529297	4.139657974243164	4.591578960418701	3.672326803207397	3.573935508728027	3.628296852111816	3.992049694061279	4.390995979309082	4.004359722137451	3.13111400604248	4.620022296905518	3.992856979370117	5.975748062133789
60	75	5.594636917114258	4.534366130828857	4.839192390441895	10.06801319122314	5.787203311920166	4.834776878356934	4.617606639862061	4.560451030731201	5.604028701782227	7.480645179748535	5.109682559967041	4.776058673858643	5.505891799926758	7.757757186889648	5.417835712432861	4.317846298217773	5.053306102752686	8.54432487487793	6.078409194946289	5.248800754547119	4.776949405670166	5.444864749908447	6.337263107299805	7.0149827003479	4.772468566894531	6.238715648651123	7.889431953430176	4.647819995880127	4.884528160095215	7.608670234680176	5.097486019134521	8.366264343261719	5.123263835906982	7.559511184692383	5.780855655670166	5.01018762588501	8.649823188781738	4.07469654083252	5.79359769821167	6.467660427093506	6.400476932525635	7.531129360198975	9.482304573059082	5.699134349822998	8.24000358581543	5.561656951904297	5.522759914398193	5.895207405090332	5.30955982208252	6.495527267456055	6.506365776062012	6.926877975463867	7.418153762817383	6.131546974182129	5.585014820098877	6.412109375	6.351393699645996	5.837859153747559	6.011091709136963	6.316571235656738	6.336696624755859	6.490208148956299	7.188131809234619	6.318969249725342	3.718995094299316	9.320805549621582	6.270227432250977	5.576112270355225	4.856019496917725	6.030843257904053	7.680010318756104	4.9642333984375	6.310481548309326	6.353907108306885	5.09504508972168	7.585686206817627	8.320146560668945	5.449655055999756	10.5831470489502	5.952978134155273	5.670917987823486	5.330230236053467	5.785140037536621	7.332993507385254	5.982212543487549	6.802817344665527	7.568423271179199	6.571463584899902	6.5854172706604	6.704448699951172	6.519590854644775	6.874739170074463	5.862017631530762	6.311768531799316	6.378260135650635	6.542270183563232	6.189601898193359	4.884443283081055	6.251427173614502	7.351503849029541	6.870094776153564	9.764217853546143
75	90	7.65407657623291	6.319136142730713	6.748665332794189	13.75210285186768	8.173978805541992	7.179663181304932	6.787049770355225	5.861515045166016	7.820716857910156	10.10632038116455	7.776125907897949	6.499797821044922	10.86137866973877	9.48423957824707	9.494928359985352	6.247947692871094	6.661306381225586	12.66021251678467	7.743677616119385	6.015454292297363	7.290235996246338	8.202485084533691	8.541735649108887	7.469131469726562	7.255997180938721	8.508638381958008	12.7430477142334	6.562032222747803	7.184547901153564	12.56202983856201	7.85725736618042	11.77632904052734	7.563133239746094	8.807757377624512	7.482660293579102	7.639109134674072	11.86949253082275	5.932322025299072	8.000438690185547	9.544658660888672	8.058839797973633	9.983188629150391	13.17856121063232	8.224889755249023	12.29472255706787	7.558460235595703	7.883137226104736	7.517491817474365	8.66093921661377	9.181475639343262	7.057817935943604	9.481589317321777	10.38862991333008	8.876545906066895	6.610224723815918	9.244649887084961	8.210680961608887	7.900137901306152	8.702862739562988	8.587919235229492	8.293747901916504	8.724628448486328	9.373921394348145	8.111328125	5.716095447540283	10.35627269744873	8.86949348449707	7.906555652618408	8.650108337402344	7.680005550384521	10.84573745727539	6.36620569229126	8.265445709228516	8.956387519836426	6.927592277526855	11.46798706054688	12.67534446716309	7.975323677062988	13.44058132171631	7.832799911499023	7.781970500946045	9.366819381713867	8.770603179931641	10.74506378173828	7.986205577850342	8.28266716003418	9.876936912536621	9.01889705657959	8.230788230895996	9.14986515045166	8.85291862487793	7.603865146636963	8.34473991394043	8.565166473388672	9.324666976928711	8.848872184753418	9.644088745117188	8.923954010009766	7.486066341400146	10.23072814941406	8.973211288452148	13.92679357528687
90	105	9.137290000915527	7.862255096435547	8.776809692382812	15.89217376708984	9.570039749145508	8.044431686401367	9.068096160888672	8.577146530151367	8.788124084472656	10.99614810943604	10.09040260314941	7.976307392120361	8.924932479858398	9.451892852783203	11.33067798614502	7.72145938873291	8.267416954040527	14.6920223236084	8.676811218261719	6.823601722717285	9.521740913391113	10.32438278198242	9.409608840942383	7.672861576080322	9.541424751281738	9.804939270019531	12.28156089782715	8.528598785400391	9.083652496337891	15.55848789215088	8.521628379821777	13.8899393081665	9.452275276184082	9.558358192443848	11.4188117980957	9.549094200134277	13.9447717666626	11.16059589385986	9.808732986450195	12.06268692016602	10.17841339111328	14.12041187286377	15.85700607299805	9.10692024230957	13.4811897277832	9.786038398742676	9.262044906616211	7.568729877471924	11.71004295349121	11.38682174682617	9.577900886535645	9.953456878662109	13.51554870605469	10.89543533325195	8.82027530670166	10.14704608917236	11.04892253875732	9.779828071594238	10.45261764526367	10.25375175476074	10.517014503479	11.17533588409424	12.28543090820312	10.01398468017578	8.444390296936035	12.75433731079102	10.08097743988037	10.72043228149414	8.988552093505859	9.948455810546875	13.65836143493652	9.363459587097168	10.37603092193604	11.10577201843262	9.146978378295898	11.78404331207275	14.24160289764404	9.537910461425781	16.61013603210449	9.345254898071289	9.696871757507324	9.254463195800781	10.99064540863037	12.65377235412598	9.654516220092773	10.06077575683594	12.81634044647217	10.8463659286499	9.289707183837891	11.39977264404297	11.19420623779297	9.44560718536377	10.43883323669434	10.83314418792725	11.4985933303833	10.79568386077881	11.6512279510498	9.748476982116699	8.047607421875	12.89417552947998	11.29948139190674	16.01957941055298
105	120	11.15134239196777	8.977383613586426	10.11995410919189	18.73113250732422	11.47042369842529	9.353940010070801	10.39426898956299	10.18299865722656	9.531887054443359	12.19475650787354	11.37680530548096	8.750137329101562	10.350417137146	13.1571683883667	9.008997917175293	8.983502388000488	10.45120716094971	17.42974662780762	11.64364051818848	8.643755912780762	10.34465408325195	9.088768005371094	9.602338790893555	7.745001316070557	9.960318565368652	9.662602424621582	15.33393669128418	10.0788459777832	10.80039691925049	17.2628231048584	9.328653335571289	16.00336647033691	11.33800411224365	12.19542503356934	11.41242504119873	10.92007446289062	15.18613624572754	9.436844825744629	11.38974761962891	13.16439914703369	12.7360668182373	12.34861946105957	18.36237907409668	11.06029510498047	15.8572883605957	9.769963264465332	10.49551773071289	10.4205322265625	12.76459312438965	13.77446269989014	10.73215198516846	13.90246105194092	17.2364330291748	13.71472835540771	11.85968112945557	12.149094581604	11.88437557220459	11.31732368469238	12.20227813720703	11.77156925201416	12.2161693572998	12.11886405944824	13.24821949005127	9.58967113494873	9.424511909484863	13.61023139953613	12.56318473815918	12.16692352294922	10.22220897674561	12.00299453735352	17.19730377197266	9.09812068939209	11.91628932952881	12.86885356903076	9.330913543701172	13.85967445373535	18.0317268371582	10.96132469177246	19.65244674682617	12.53732872009277	11.15292072296143	9.39556884765625	11.54498481750488	12.93043041229248	11.70365715026855	12.31844806671143	14.73833465576172	13.14447402954102	11.21048927307129	13.30651378631592	12.27827262878418	12.55742073059082	12.48207855224609	12.45654964447021	13.71291732788086	12.83077430725098	13.36868858337402	11.23596572875977	9.616206169128418	14.02422618865967	11.23262691497803	18.99306106567383
120	135	11.38139247894287	9.531099319458008	10.54987049102783	19.86582946777344	10.86728572845459	8.512585639953613	11.44443798065186	8.998349189758301	10.52820491790771	11.08460712432861	12.18062973022461	8.363919258117676	11.11407852172852	10.39724349975586	14.68476581573486	9.587237358093262	9.481449127197266	18.4517879486084	11.99777984619141	8.867072105407715	11.52971076965332	11.31301784515381	10.55497264862061	7.754149913787842	10.28745555877686	10.04643249511719	17.55221939086914	10.92108821868896	12.07082176208496	17.87826919555664	8.908456802368164	16.52435684204102	12.59943389892578	13.2985143661499	10.92284393310547	11.98529720306396	17.11179733276367	9.885532379150391	11.3057279586792	15.10085964202881	12.35378837585449	13.81951332092285	20.04497528076172	12.50729656219482	16.5365104675293	11.95159816741943	11.89949131011963	9.496180534362793	12.89643478393555	13.49266529083252	12.45785903930664	12.99868011474609	15.7057638168335	14.84921169281006	12.03245830535889	13.08340930938721	12.82952785491943	12.01747989654541	14.20213603973389	13.17851161956787	13.0369873046875	13.73153495788574	14.00399017333984	13.60270881652832	8.111313819885254	17.44058036804199	13.31931781768799	13.73789119720459	11.47042560577393	12.98270606994629	17.4376220703125	10.69172668457031	12.34539031982422	13.39127159118652	11.21854877471924	13.16356658935547	18.7734260559082	11.65442943572998	18.58218383789062	11.56744861602783	12.18181991577148	10.0391263961792	12.78731250762939	13.62760353088379	11.04723262786865	12.0217809677124	15.91433620452881	12.73653793334961	10.35892963409424	13.41187191009521	12.9347505569458	11.46962833404541	12.59547233581543	13.3130054473877	14.56042289733887	13.16354274749756	12.96261596679688	10.81759262084961	9.887333869934082	15.93387794494629	12.37720680236816	20.18451023101807
135	150	12.23548698425293	10.5185079574585	12.34398746490479	20.15017890930176	12.20757007598877	9.218146324157715	11.72192573547363	9.612529754638672	11.5963020324707	13.24499893188477	10.02707767486572	8.663836479187012	8.657459259033203	11.99476623535156	11.94156360626221	10.18407726287842	11.76174449920654	19.36130905151367	11.94441699981689	9.777050971984863	12.95828723907471	13.65726184844971	11.9676513671875	9.373383522033691	8.811281204223633	11.40100193023682	14.98348331451416	12.31292152404785	13.27138710021973	19.03486442565918	10.53386783599854	17.19268608093262	13.69597339630127	12.77918720245361	11.09603881835938	13.16519832611084	19.55743598937988	9.626502990722656	12.58725070953369	16.05391120910645	14.00962352752686	14.64815807342529	21.46115875244141	13.46014499664307	17.40925788879395	13.17143535614014	12.19366073608398	13.1429615020752	14.78412437438965	15.26583194732666	12.76469135284424	13.99114894866943	15.94117641448975	14.91636753082275	11.91955375671387	14.64239597320557	14.09440135955811	12.52006816864014	14.24914741516113	13.75417804718018	13.64432048797607	13.92164611816406	14.98818874359131	12.31382846832275	9.258098602294922	15.85126876831055	13.89126968383789	13.58227252960205	13.7636079788208	13.40616893768311	18.00451850891113	7.856701850891113	13.1978645324707	15.54107856750488	11.2887134552002	15.69257259368896	20.42825508117676	11.88880062103271	19.97171211242676	12.49935913085938	12.01738452911377	10.98329734802246	13.70870590209961	14.72204208374023	13.52492523193359	14.46778964996338	18.69635200500488	13.50037860870361	12.96914291381836	14.70396614074707	14.89706993103027	12.71526145935059	13.3901481628418	14.1064281463623	15.27547073364258	13.54886627197266	15.10845756530762	11.9310302734375	13.4229850769043	19.20892333984375	13.01358222961426	20.71218776702881
150	165	12.29647827148438	10.42346668243408	11.62368774414062	19.99972724914551	12.27140808105469	11.06872940063477	10.55948257446289	12.88769245147705	11.86744022369385	11.89155101776123	11.66907691955566	8.73420238494873	10.29765129089355	12.27932834625244	12.40282821655273	10.47912216186523	12.09457874298096	19.11083793640137	13.05129718780518	9.077061653137207	12.47097110748291	12.18995952606201	11.46637344360352	11.61764144897461	13.48344135284424	10.20008659362793	13.87406349182129	12.75502395629883	14.0489616394043	17.18446350097656	11.17202854156494	16.90854072570801	14.464919090271	14.2636833190918	12.31381320953369	13.89279365539551	19.00268936157227	10.48819065093994	13.21728420257568	15.74093341827393	13.51208019256592	13.74989986419678	20.13758277893066	12.32609748840332	17.56077003479004	12.43071460723877	13.61379528045654	12.37102603912354	13.22771072387695	15.9264497756958	13.45606899261475	15.00678730010986	17.71744537353516	14.92067527770996	13.27147960662842	15.05152606964111	14.27644920349121	11.10559177398682	15.00223636627197	13.90868949890137	13.92744064331055	13.14235687255859	14.70424556732178	13.98508262634277	10.36588096618652	16.10116004943848	12.9940824508667	15.09371280670166	12.57928466796875	14.10896778106689	18.12948799133301	10.68466281890869	13.54595851898193	15.16677379608154	11.86334228515625	13.03239917755127	19.94403457641602	12.96036911010742	20.78979301452637	12.70829486846924	12.99121475219727	10.36665439605713	14.33692169189453	14.21516799926758	12.31162452697754	15.80875682830811	19.03386688232422	14.88786602020264	11.08469295501709	14.95906543731689	14.44338512420654	12.14745330810547	13.4667387008667	14.3026876449585	15.11785125732422	13.6565523147583	14.77476692199707	14.6393461227417	10.26679611206055	18.23453903198242	12.88260650634766	20.52706241607666
165	180	13.19458389282227	10.85515785217285	12.53557014465332	19.26686859130859	13.2340202331543	10.44505882263184	13.34193706512451	14.55062484741211	10.47386360168457	13.35685920715332	11.0005521774292	8.709732055664062	11.04451084136963	10.09704685211182	13.33326435089111	10.74784374237061	12.44822692871094	18.94893264770508	12.381272315979	10.38356304168701	12.95590877532959	10.7338695526123	12.90659141540527	9.141742706298828	14.27640247344971	10.71334171295166	16.12088203430176	12.7941951751709	14.36507797241211	19.19132423400879	9.79891300201416	16.53537178039551	14.60346794128418	14.67179489135742	11.51517677307129	13.88853645324707	18.5049934387207	11.55071926116943	13.40552806854248	16.55243873596191	13.10719299316406	14.1776819229126	19.93768882751465	11.62173080444336	17.23640823364258	12.91824340820312	12.9673318862915	12.31687355041504	15.58312797546387	15.19719982147217	15.89700698852539	14.38250637054443	15.05256080627441	15.60800838470459	12.97138786315918	14.74945735931396	14.84387874603271	12.49663829803467	15.09267520904541	13.88648319244385	14.63005638122559	13.13334941864014	15.08404350280762	13.09408569335938	8.627954483032227	17.01999092102051	12.1177282333374	13.61566257476807	10.56053256988525	13.25345611572266	17.90496063232422	8.810410499572754	13.40084266662598	14.95940971374512	11.97810554504395	15.61812496185303	20.31678199768066	12.98683929443359	19.30924797058105	13.27449131011963	13.86532783508301	11.01796913146973	15.38937473297119	14.68454265594482	14.25886249542236	14.25841522216797	19.36479949951172	15.06905937194824	11.4113130569458	14.14269542694092	14.42138481140137	11.53944873809814	14.71326351165771	14.69218635559082	15.28330039978027	14.71223831176758	15.85746765136719	16.69510650634766	11.00136947631836	20.63092041015625	13.5946683883667	19.89990901947021
180	195	12.69061279296875	11.13593769073486	11.51429462432861	19.33198547363281	12.99092578887939	9.664469718933105	13.3973217010498	13.44696044921875	10.61888790130615	10.40878009796143	11.56942176818848	8.359792709350586	12.17346858978271	12.34237098693848	13.22134971618652	11.06518745422363	12.14045810699463	18.03642845153809	11.3582935333252	9.794977188110352	12.98168277740479	13.94493675231934	11.44200325012207	9.217203140258789	10.30061912536621	10.96597862243652	17.1660099029541	12.80387401580811	14.43975830078125	17.87327766418457	10.01919174194336	16.19964218139648	14.95090770721436	13.50342845916748	12.29109191894531	14.32760047912598	19.74491882324219	10.52676582336426	13.7882776260376	16.50680923461914	13.38061809539795	14.46837997436523	19.67108917236328	13.22774124145508	16.78569793701172	12.24079036712646	12.95224666595459	12.71550559997559	13.17837524414062	15.17835235595703	14.67040157318115	14.28267574310303	19.12633895874023	15.12737560272217	13.11497402191162	15.21490001678467	14.86937808990479	10.91089534759521	16.00559425354004	14.02325439453125	14.05538272857666	13.56770801544189	15.86446285247803	14.29578113555908	7.514964580535889	16.80665016174316	12.61976337432861	12.69402694702148	11.27046394348145	13.78828239440918	17.23566436767578	8.481061935424805	13.6836986541748	16.63188362121582	12.74570560455322	13.33226776123047	20.35862922668457	12.69593811035156	18.29242897033691	14.04097080230713	13.4157247543335	10.71542167663574	14.31713104248047	14.77673149108887	14.20498657226562	14.58929252624512	17.94089889526367	15.35789108276367	12.59322452545166	15.09556865692139	14.5275821685791	10.80388736724854	14.97924423217773	14.51410961151123	16.19703102111816	13.91517448425293	14.53422737121582	18.42955589294434	11.827317237854	17.75014305114746	12.41014099121094	19.58468818664551
195	210	13.24454784393311	11.18648910522461	11.79377365112305	18.60087394714355	12.79547500610352	10.90651893615723	12.67015171051025	13.24752616882324	9.827385902404785	11.06271266937256	9.883786201477051	8.632351875305176	13.50971508026123	11.74776268005371	11.03099250793457	11.06766891479492	11.89124965667725	18.75710105895996	12.33199501037598	9.936286926269531	14.04395198822021	12.0805606842041	10.30718231201172	10.1974925994873	12.29957485198975	12.14523315429688	14.34285163879395	12.9908447265625	14.53044414520264	16.72272109985352	10.40568542480469	15.93455696105957	14.98365783691406	14.3912525177002	13.01836681365967	15.02093887329102	15.61675453186035	11.70952606201172	13.6217212677002	16.24477195739746	13.79440975189209	12.17423534393311	18.96182250976562	13.37321472167969	16.6371955871582	13.37522315979004	14.67929744720459	9.856817245483398	13.82222080230713	15.13161182403564	14.04748439788818	14.074049949646	16.02540397644043	15.3274450302124	12.5420970916748	15.66378784179688	14.25639915466309	12.77700996398926	16.00590324401855	14.10134124755859	13.88613128662109	14.66762542724609	15.98582649230957	15.45933055877686	9.72362232208252	16.62277030944824	13.45361232757568	15.47912311553955	11.05751705169678	14.85677433013916	17.56170082092285	9.49952507019043	14.067138671875	15.77629661560059	12.49764633178711	12.28588008880615	19.69667625427246	12.98045063018799	19.21295928955078	12.86771011352539	15.00626182556152	11.14731025695801	14.62083339691162	13.98599815368652	15.1637077331543	15.90288639068604	16.01577949523926	13.98777770996094	12.12619590759277	14.33203315734863	15.13956642150879	12.87764930725098	15.51732540130615	14.34770679473877	16.07529640197754	13.72922039031982	16.05378913879395	12.66097068786621	11.57061576843262	16.92441368103027	13.32338237762451	19.59408378601074
210	225	12.63840866088867	11.21259498596191	13.12869071960449	18.0750846862793	12.35007095336914	9.633651733398438	12.40505886077881	12.61230754852295	10.4929084777832	11.73288345336914	10.60418033599854	8.379083633422852	12.75202083587646	11.46930503845215	12.54252529144287	11.18096923828125	11.75814056396484	18.56770706176758	12.24167346954346	10.84316921234131	13.24005126953125	14.34199905395508	10.69946765899658	9.02757740020752	16.67027282714844	8.949532508850098	14.72176265716553	12.2964973449707	14.53857421875	15.91400623321533	10.20317935943604	15.76927280426025	15.12637138366699	14.09209823608398	12.59690570831299	14.7558536529541	17.74108123779297	10.04193496704102	13.75630569458008	16.68787002563477	13.00934028625488	13.91774749755859	19.32769966125488	13.42510032653809	15.9048433303833	12.48411560058594	13.52018451690674	12.49393844604492	12.94509792327881	16.08402824401855	15.6896276473999	14.65642929077148	17.46085166931152	15.28127574920654	13.8118953704834	15.28379058837891	15.39883804321289	13.40956687927246	15.94068145751953	14.70652866363525	14.56366729736328	13.67446422576904	15.67622470855713	15.65195941925049	9.229885101318359	17.08302688598633	12.90124893188477	13.26535511016846	10.44201374053955	14.67370414733887	17.38514518737793	12.51422119140625	14.03601264953613	16.79768753051758	12.69116973876953	12.51474666595459	19.62274742126465	13.36142349243164	18.84829902648926	13.5758581161499	13.87290382385254	9.375402450561523	14.88799476623535	15.38513278961182	14.38671588897705	14.28612899780273	18.9964542388916	15.56731796264648	12.3444242477417	15.14625549316406	15.28479862213135	12.26863765716553	15.39051628112793	14.28456115722656	16.22131156921387	14.47117900848389	15.40356159210205	17.25346755981445	13.20958805084229	15.09015274047852	12.67918968200684	19.13760185241699
